           Mach 6.5   THROAT VELOCITY DISTRIBUTION, X=O, RC=  6.000000

          DERIVATIVES TAKEN WITH RESPECT TO X/Y*, WOP= 0.34136118

          WOPP=  2.8328436E-03     WOPPP= -7.6881686E-02

          Y/YO       U/A*          V/A*           W           MACH NO.

         0.0000    0.96385164    0.00000000    0.96385164    0.95708127
         0.0227    0.96388554   -0.00032612    0.96388560    0.95712116
         0.0455    0.96398728   -0.00065147    0.96398750    0.95724089
         0.0682    0.96415691   -0.00097528    0.96415741    0.95744054
         0.0909    0.96439457   -0.00129676    0.96439544    0.95772027
         0.1136    0.96470042   -0.00161515    0.96470177    0.95808032
         0.1364    0.96507468   -0.00192964    0.96507661    0.95852097
         0.1591    0.96551762   -0.00223945    0.96552022    0.95904259
         0.1818    0.96602956   -0.00254375    0.96603291    0.95964562
         0.2045    0.96661088   -0.00284175    0.96661506    0.96033054

         0.2273    0.96726200   -0.00313259    0.96726707    0.96109794
         0.2500    0.96798341   -0.00341543    0.96798943    0.96194847
         0.2727    0.96877564   -0.00368939    0.96878266    0.96288284
         0.2955    0.96963929   -0.00395358    0.96964735    0.96390188
         0.3182    0.97057503   -0.00420707    0.97058415    0.96500647
         0.3409    0.97158358   -0.00444893    0.97159376    0.96619759
         0.3636    0.97266573   -0.00467817    0.97267698    0.96747630
         0.3864    0.97382233   -0.00489378    0.97383463    0.96884378
         0.4091    0.97505433   -0.00509470    0.97506764    0.97030128
         0.4318    0.97636271   -0.00527983    0.97637699    0.97185016

         0.4545    0.97774858   -0.00544804    0.97776376    0.97349191
         0.4773    0.97921309   -0.00559813    0.97922909    0.97522810
         0.5000    0.98075749   -0.00572885    0.98077422    0.97706044
         0.5227    0.98238312   -0.00583887    0.98240047    0.97899077
         0.5455    0.98409140   -0.00592683    0.98410925    0.98102105
         0.5682    0.98588388   -0.00599125    0.98590208    0.98315338
         0.5909    0.98776216   -0.00603061    0.98778057    0.98539001
         0.6136    0.98972800   -0.00604329    0.98974645    0.98773333
         0.6364    0.99178323   -0.00602755    0.99180154    0.99018592
         0.6591    0.99392981   -0.00598159    0.99394780    0.99275050

         0.6818    0.99616981   -0.00590345    0.99618731    0.99542999
         0.7045    0.99850546   -0.00579111    0.99852225    0.99822749
         0.7273    1.00093907   -0.00564236    1.00095497    1.00114630
         0.7500    1.00347313   -0.00545488    1.00348795    1.00418993
         0.7727    1.00611024   -0.00522622    1.00612381    1.00736213
         0.7955    1.00885316   -0.00495373    1.00886533    1.01066685
         0.8182    1.01170483   -0.00463462    1.01171544    1.01410833
         0.8409    1.01466830   -0.00426590    1.01467727    1.01769104
         0.8636    1.01774683   -0.00384438    1.01775409    1.02141974
         0.8864    1.02094383   -0.00336667    1.02094938    1.02529949

         0.9091    1.02426291   -0.00282915    1.02426681    1.02933565
         0.9318    1.02770784   -0.00222797    1.02771026    1.03353393
         0.9545    1.03128262   -0.00155902    1.03128380    1.03790036
         0.9773    1.03499143   -0.00081792    1.03499175    1.04244138
         1.0000    1.03883866   -0.00000000    1.03883866    1.04716380
          FROM CUBIC, X/Y* = 0.10589173 FOR W= 1.0

                      X/Y* = 0.30916405 FOR W= 1.06914498

          CORRECTED WOPPP= -7.5033231E-02

          RMASS = Y*/YO = 0.9997135747


          AXIAL VELOCITY DISTRIBUTION, Y=0

          X/Y*         W                 WP                WPP               M                 MP                MPP

         0.000     9.6385164E-01     3.4136118E-01     2.8328436E-03     9.5708127E-01     4.0106175E-01     8.1394664E-02
         0.100     9.9798942E-01     3.4126930E-01    -4.6704794E-03     9.9758876E-01     4.0903012E-01     7.7920331E-02
         0.200     1.0320805E+00     3.4042708E-01    -1.2173802E-02     1.0388752E+00     4.1663401E-01     7.4091422E-02
         0.300     1.0660498E+00     3.3883454E-01    -1.9677126E-02     1.0809021E+00     4.2383370E-01     6.9820989E-02
       0.30913716  1.0691450E+00     3.3865161E-01    -2.0362716E-02     1.0847776E+00     4.2446977E-01     6.9405507E-02
         0.400     1.0998224E+00     3.3649166E-01    -2.7180449E-02     1.1236268E+00     4.3058029E-01     6.5012734E-02
         0.500     1.1333231E+00     3.3339845E-01    -3.4683772E-02     1.1670011E+00     4.3681479E-01     5.9560535E-02
         0.600     1.1664771E+00     3.2955490E-01    -4.2187095E-02     1.2109704E+00     4.4246707E-01     5.3348148E-02
         0.700     1.1992091E+00     3.2496103E-01    -4.9690418E-02     1.2554724E+00     4.4745488E-01     4.6249172E-02
         0.800     1.2314443E+00     3.1961682E-01    -5.7193741E-02     1.3004360E+00     4.5168282E-01     3.8127370E-02
         0.900     1.2631075E+00     3.1352228E-01    -6.4697064E-02     1.3457800E+00     4.5504143E-01     2.8837498E-02
         1.000     1.2941237E+00     3.0667741E-01    -7.2200387E-02     1.3914112E+00     4.5740630E-01     1.8226785E-02
1  Mach 6.5   INVISCID CONTOUR, 4TH-DEGAXIAL MACH NUMBER DISTRIBUTION FROM THROAT CHARACTERISTIC WHICH HAS  45 POINTS

     NO. OF POINTS ON 1ST CHAR. (M)= 61     NO. OF POINTS ON AXIS (N)= 41     EPSI/ETA= 0.00000    BMACH=  6.50000    CMACH=  6.50000

     GAMMA= 1.4000     INFLECTION ANG. (ETA)= 60.0000  DEGREES     RAD. OF CURV. (RC)=   6.000000     SCALE FACTOR (SF)=   0.13000000

     Y*=1.00000000    RMASS=0.99971357    WWO= 1.0388387    WWOP= 0.39255278    EMACH= 6.50000    FMACH= 6.5000000    GMACH=  0.00000

          WI=  1.06914498    WIP=  0.33865161    WIPP= -2.0362716E-02    MI=  1.08477764    MIP=  0.42446977    MIPP=  6.9405507E-02

          C1=  1.0847776   C2=  7.35621726   C3=  1.0422682E+01   C4= -2.1253127E+01   C5=  8.8894498E+00   C6=  0.0000000E+00

          XOI=  0.10589746   XI=  0.30913716   XO=  0.00000000   YO=  1.00028651   XIE= 17.33036791   XE= 17.63950507    0 ITERATIONS

          MACH 0.95708127 AT 50.4695990 IN.,   MACH 1 AT 50.4833657 IN.,   MACH 1.08477764 AT 50.5097869 IN.

  AXIS
 POINT    X       X(IN)   MACH NO.    DM/DX        D2M/DX2       D3M/DX3       W=Q/A*     DW/DX        D2W/DX2       D3W/DX3

   1  17.63951  52.76273  6.500000  5.124983E-16  4.731563E-17  1.648944E-02  2.316264  1.932570E-17  1.784216E-18  6.217971E-04
   2  16.86745  52.66237  6.498770  4.733013E-03 -1.202586E-02  1.466343E-02  2.316218  1.785669E-04 -4.540600E-04  5.558812E-04
   3  16.11107  52.56404  6.490725  1.785306E-02 -2.244040E-02  1.287449E-02  2.315914  6.758012E-04 -8.544329E-04  5.061896E-04
   4  15.37045  52.46776  6.470506  3.784367E-02 -3.132684E-02  1.112283E-02  2.315145  1.444548E-03 -1.218433E-03  4.812624E-04
   5  14.64568  52.37354  6.434171  6.331999E-02 -3.876721E-02  9.408641E-03  2.313748  2.453747E-03 -1.566926E-03  4.855212E-04
   6  13.93683  52.28139  6.379014  9.302338E-02 -4.484231E-02  7.732125E-03  2.311585  3.688757E-03 -1.921898E-03  5.216851E-04
   7  13.24400  52.19132  6.303396  1.258160E-01 -4.963169E-02  6.093498E-03  2.308539  5.150417E-03 -2.305663E-03  5.924439E-04
   8  12.56729  52.10335  6.206597  1.606756E-01 -5.321371E-02  4.492980E-03  2.304494  6.853851E-03 -2.741050E-03  7.015448E-04
   9  11.90678  52.01748  6.088665  1.966900E-01 -5.566543E-02  2.930799E-03  2.299333  8.827560E-03 -3.252129E-03  8.545020E-04
  10  11.26259  51.93374  5.950294  2.330522E-01 -5.706269E-02  1.407192E-03  2.292932  1.111297E-02 -3.865190E-03  1.059090E-03

  11  10.63480  51.85212  5.792701  2.690549E-01 -5.748003E-02 -7.759427E-05  2.285147  1.376445E-02 -4.609828E-03  1.325712E-03
  12  10.02354  51.77266  5.617516  3.040857E-01 -5.699075E-02 -1.523306E-03  2.275819  1.684980E-02 -5.520001E-03  1.667672E-03
  13   9.42891  51.69536  5.426689  3.376217E-01 -5.566682E-02 -2.929676E-03  2.264762  2.045088E-02 -6.634966E-03  2.101277E-03
  14   8.85104  51.62023  5.222396  3.692250E-01 -5.357892E-02 -4.296427E-03  2.251764  2.466432E-02 -7.999941E-03  2.645661E-03
  15   8.29004  51.54730  5.006965  3.985372E-01 -5.079643E-02 -5.623271E-03  2.236586  2.960199E-02 -9.666259E-03  3.322082E-03
  16   7.74603  51.47658  4.782803  4.252750E-01 -4.738740E-02 -6.909905E-03  2.218958  3.539063E-02 -1.169068E-02  4.152356E-03
  17   7.21917  51.40809  4.552339  4.492251E-01 -4.341854E-02 -8.156012E-03  2.198582  4.217035E-02 -1.413340E-02  5.155979E-03
  18   6.70958  51.34184  4.317967  4.702397E-01 -3.895522E-02 -9.361260E-03  2.175138  5.009106E-02 -1.705418E-02  6.345404E-03
  19   6.21741  51.27786  4.082005  4.882314E-01 -3.406147E-02 -1.052530E-02  2.148287  5.930626E-02 -2.050594E-02  7.718984E-03
  20   5.74282  51.21617  3.846652  5.031691E-01 -2.879993E-02 -1.164776E-02  2.117687  6.996312E-02 -2.452526E-02  9.251352E-03

  21   5.28598  51.15678  3.613966  5.150731E-01 -2.323191E-02 -1.272826E-02  2.083012  8.218843E-02 -2.911963E-02  1.088168E-02
  22   4.84705  51.09972  3.385832  5.240108E-01 -1.741730E-02 -1.376638E-02  2.043973  9.607014E-02 -3.425195E-02  1.250140E-02
  23   4.42623  51.04501  3.163947  5.300921E-01 -1.141464E-02 -1.476168E-02  2.000352  1.116353E-01 -3.982410E-02  1.394463E-02
  24   4.02370  50.99268  2.949810  5.334651E-01 -5.281083E-03 -1.571371E-02  1.952035  1.288265E-01 -4.566300E-02  1.498607E-02
  25   3.63969  50.94276  2.744712  5.343122E-01  9.276158E-04 -1.662195E-02  1.899054  1.474807E-01 -5.151391E-02  1.535225E-02
  26   3.27441  50.89527  2.549737  5.328452E-01  7.157068E-03 -1.748589E-02  1.841621  1.673147E-01 -5.704660E-02  1.475038E-02
  27   2.92811  50.85025  2.365764  5.293019E-01  1.335426E-02 -1.830493E-02  1.780159  1.879249E-01 -6.187859E-02  1.291496E-02
  28   2.60105  50.80774  2.193475  5.239415E-01  1.946751E-02 -1.907847E-02  1.715317  2.088029E-01 -6.561626E-02  9.665091E-03
  29   2.29352  50.76776  2.033363  5.170411E-01  2.544647E-02 -1.980581E-02  1.647960  2.293712E-01 -6.790901E-02  4.957950E-03
  30   2.00584  50.73036  1.885753  5.088917E-01  3.124206E-02 -2.048620E-02  1.579150  2.490347E-01 -6.850602E-02 -1.079386E-03

  31   1.73836  50.69559  1.750816  4.997946E-01  3.680639E-02 -2.111884E-02  1.510095  2.672401E-01 -6.730203E-02 -8.153865E-03
  32   1.49146  50.66349  1.628593  4.900575E-01  4.209270E-02 -2.170279E-02  1.442088  2.835329E-01 -6.436025E-02 -1.584875E-02
  33   1.26559  50.63413  1.519017  4.799917E-01  4.705514E-02 -2.223701E-02  1.376437  2.976006E-01 -5.990680E-02 -2.369313E-02
  34   1.06124  50.60756  1.421946  4.699084E-01  5.164860E-02 -2.272032E-02  1.314409  3.092958E-01 -5.429945E-02 -3.123801E-02
  35   0.87900  50.58387  1.337192  4.601165E-01  5.582834E-02 -2.315133E-02  1.257176  3.186344E-01 -4.798042E-02 -3.811776E-02
  36   0.71957  50.56314  1.264562  4.509200E-01  5.954938E-02 -2.352840E-02  1.205793  3.257740E-01 -4.142606E-02 -4.408342E-02
  37   0.58380  50.54549  1.203900  4.426173E-01  6.276560E-02 -2.384951E-02  1.161200  3.309768E-01 -3.510455E-02 -4.900505E-02
  38   0.47279  50.53106  1.155154  4.355017E-01  6.542788E-02 -2.411208E-02  1.124251  3.345640E-01 -2.944899E-02 -5.284918E-02
  39   0.38801  50.52004  1.118473  4.298683E-01  6.748043E-02 -2.431258E-02  1.095789  3.368672E-01 -2.484952E-02 -5.564019E-02
  40   0.33179  50.51273  1.094410  4.260356E-01  6.885117E-02 -2.444556E-02  1.076811  3.381755E-01 -2.167102E-02 -5.740999E-02

  41   0.30914  50.50979  1.084778  4.244698E-01  6.940551E-02 -2.449913E-02  1.069145  3.386516E-01 -2.036272E-02 -5.810291E-02
   Mach 6.5   THROAT CHARACTERISTIC
             
        POINT        X              Y          MACH NO.      MACH ANG.(D)     PSI (D)     FLOW ANG.(D)        X(IN)         Y(IN)

          1    3.0913716E-01  0.0000000E+00  1.0847776E+00  6.7197746E+01  1.0529038E+00  0.0000000E+00    50.5097869     0.0000000
          2    2.9968938E-01  2.2733784E-02  1.0808196E+00  6.7702118E+01  9.8245330E-01  3.4811254E-02    50.5085586     0.0029554
          3    2.9045753E-01  4.5467569E-02  1.0770581E+00  6.8195247E+01  9.1681691E-01  6.6427763E-02    50.5073585     0.0059108
          4    2.8143631E-01  6.8201353E-02  1.0734886E+00  6.8676517E+01  8.5576299E-01  9.5024047E-02    50.5061857     0.0088662
          5    2.7262016E-01  9.0935137E-02  1.0701068E+00  6.9145286E+01  7.9906689E-01  1.2076881E-01    50.5050396     0.0118216
          6    2.6400330E-01  1.1366892E-01  1.0669086E+00  6.9600893E+01  7.4651091E-01  1.4382499E-01    50.5039195     0.0147770
          7    2.5557964E-01  1.3640271E-01  1.0638898E+00  7.0042658E+01  6.9788437E-01  1.6434976E-01    50.5028244     0.0177324
          8    2.4734286E-01  1.5913649E-01  1.0610463E+00  7.0469885E+01  6.5298359E-01  1.8249452E-01    50.5017536     0.0206877
          9    2.3928637E-01  1.8187027E-01  1.0583743E+00  7.0881870E+01  6.1161200E-01  1.9840486E-01    50.5007063     0.0236431
         10    2.3140329E-01  2.0460406E-01  1.0558697E+00  7.1277900E+01  5.7358019E-01  2.1222051E-01    50.4996815     0.0265985

         11    2.2368649E-01  2.2733784E-01  1.0535288E+00  7.1657260E+01  5.3870607E-01  2.2407524E-01    50.4986783     0.0295539
         12    2.1612856E-01  2.5007163E-01  1.0513475E+00  7.2019244E+01  5.0681496E-01  2.3409680E-01    50.4976957     0.0325093
         13    2.0872186E-01  2.7280541E-01  1.0493223E+00  7.2363158E+01  4.7773972E-01  2.4240679E-01    50.4967329     0.0354647
         14    2.0145844E-01  2.9553920E-01  1.0474492E+00  7.2688328E+01  4.5132091E-01  2.4912055E-01    50.4957886     0.0384201
         15    1.9433017E-01  3.1827298E-01  1.0457246E+00  7.2994111E+01  4.2740693E-01  2.5434708E-01    50.4948619     0.0413755
         16    1.8732865E-01  3.4100676E-01  1.0441447E+00  7.3279902E+01  4.0585415E-01  2.5818887E-01    50.4939517     0.0443309
         17    1.8044527E-01  3.6374055E-01  1.0427059E+00  7.3545146E+01  3.8652703E-01  2.6074190E-01    50.4930569     0.0472863
         18    1.7367127E-01  3.8647433E-01  1.0414044E+00  7.3789343E+01  3.6929826E-01  2.6209546E-01    50.4921763     0.0502417
         19    1.6699767E-01  4.0920812E-01  1.0402367E+00  7.4012062E+01  3.5404880E-01  2.6233217E-01    50.4913087     0.0531971
         20    1.6041539E-01  4.3194190E-01  1.0391991E+00  7.4212946E+01  3.4066795E-01  2.6152787E-01    50.4904530     0.0561524

         21    1.5391523E-01  4.5467569E-01  1.0382882E+00  7.4391723E+01  3.2905341E-01  2.5975170E-01    50.4896080     0.0591078
         22    1.4748792E-01  4.7740947E-01  1.0375005E+00  7.4548207E+01  3.1911120E-01  2.5706604E-01    50.4887725     0.0620632
         23    1.4112417E-01  5.0014325E-01  1.0368326E+00  7.4682307E+01  3.1075568E-01  2.5352664E-01    50.4879452     0.0650186
         24    1.3481466E-01  5.2287704E-01  1.0362811E+00  7.4794027E+01  3.0390939E-01  2.4918267E-01    50.4871249     0.0679740
         25    1.2855012E-01  5.4561082E-01  1.0358428E+00  7.4883468E+01  2.9850296E-01  2.4407688E-01    50.4863105     0.0709294
         26    1.2232136E-01  5.6834461E-01  1.0355147E+00  7.4950826E+01  2.9447491E-01  2.3824575E-01    50.4855008     0.0738848
         27    1.1611931E-01  5.9107839E-01  1.0352937E+00  7.4996385E+01  2.9177149E-01  2.3171969E-01    50.4846945     0.0768402
         28    1.0993502E-01  6.1381217E-01  1.0351769E+00  7.5020517E+01  2.9034637E-01  2.2452324E-01    50.4838906     0.0797956
         29    1.0375973E-01  6.3654596E-01  1.0351617E+00  7.5023671E+01  2.9016044E-01  2.1667534E-01    50.4830878     0.0827510
         30    9.7584884E-02  6.5927974E-01  1.0352454E+00  7.5006365E+01  2.9118151E-01  2.0818956E-01    50.4822851     0.0857064

         31    9.1402159E-02  6.8201353E-01  1.0354256E+00  7.4969175E+01  2.9338401E-01  1.9907434E-01    50.4814813     0.0886618
         32    8.5203476E-02  7.0474731E-01  1.0357001E+00  7.4912727E+01  2.9674869E-01  1.8933332E-01    50.4806755     0.0916172
         33    7.8981021E-02  7.2748110E-01  1.0360668E+00  7.4837682E+01  3.0126232E-01  1.7896553E-01    50.4798666     0.0945725
         34    7.2727262E-02  7.5021488E-01  1.0365238E+00  7.4744732E+01  3.0691743E-01  1.6796567E-01    50.4790536     0.0975279
         35    6.6434949E-02  7.7294866E-01  1.0370695E+00  7.4634583E+01  3.1371200E-01  1.5632434E-01    50.4782356     0.1004833
         36    6.0097126E-02  7.9568245E-01  1.0377023E+00  7.4507948E+01  3.2164920E-01  1.4402826E-01    50.4774116     0.1034387
         37    5.3707124E-02  8.1841623E-01  1.0384209E+00  7.4365542E+01  3.3073716E-01  1.3106048E-01    50.4765809     0.1063941
         38    4.7258563E-02  8.4115002E-01  1.0392241E+00  7.4208067E+01  3.4098878E-01  1.1740052E-01    50.4757426     0.1093495
         39    4.0745346E-02  8.6388380E-01  1.0401111E+00  7.4036213E+01  3.5242148E-01  1.0302455E-01    50.4748959     0.1123049
         40    3.4161648E-02  8.8661759E-01  1.0410811E+00  7.3850645E+01  3.6505709E-01  8.7905506E-02    50.4740400     0.1152603

         41    2.7501911E-02  9.0935137E-01  1.0421336E+00  7.3652006E+01  3.7892168E-01  7.2013171E-02    50.4731743     0.1182157
         42    2.0760830E-02  9.3208515E-01  1.0432682E+00  7.3440909E+01  3.9404549E-01  5.5314267E-02    50.4722979     0.1211711
         43    1.3933340E-02  9.5481894E-01  1.0444847E+00  7.3217934E+01  4.1046283E-01  3.7772484E-02    50.4714104     0.1241265
         44    7.0146040E-03  9.7755272E-01  1.0457832E+00  7.2983628E+01  4.2821204E-01  1.9348505E-02    50.4705109     0.1270819
         45    0.0000000E+00  1.0002865E+00  1.0471638E+00  7.2738506E+01  4.4733546E-01  0.0000000E+00    50.4695990     0.1300372
1  Mach 6.5   INVISCID CONTOUR

  CHARACT   1
        POINT        X              Y          MACH NO.     MACH ANG.(D)      PSI (D)      FLOW ANG.(D)       X(IN)         Y(IN)

          1    1.7639505E+01  0.0000000E+00  6.5000000E+00  8.8498831E+00  8.8168161E+01  0.0000000E+00    52.7627347     0.0000000
          2    1.8567360E+01  1.4446675E-01  6.5000000E+00  8.8498831E+00  8.8168161E+01  0.0000000E+00    52.8833558     0.0187807
          3    1.9495214E+01  2.8893351E-01  6.5000000E+00  8.8498831E+00  8.8168161E+01  0.0000000E+00    53.0039769     0.0375614
          4    2.0423069E+01  4.3340026E-01  6.5000000E+00  8.8498831E+00  8.8168161E+01  0.0000000E+00    53.1245979     0.0563420
          5    2.1350923E+01  5.7786702E-01  6.5000000E+00  8.8498831E+00  8.8168161E+01  0.0000000E+00    53.2452190     0.0751227
          6    2.2278778E+01  7.2233377E-01  6.5000000E+00  8.8498831E+00  8.8168161E+01  0.0000000E+00    53.3658401     0.0939034
          7    2.3206632E+01  8.6680052E-01  6.5000000E+00  8.8498831E+00  8.8168161E+01  0.0000000E+00    53.4864612     0.1126841
          8    2.4134487E+01  1.0112673E+00  6.5000000E+00  8.8498831E+00  8.8168161E+01  0.0000000E+00    53.6070823     0.1314647
          9    2.5062341E+01  1.1557340E+00  6.5000000E+00  8.8498831E+00  8.8168161E+01  0.0000000E+00    53.7277034     0.1502454
         10    2.5990196E+01  1.3002008E+00  6.5000000E+00  8.8498831E+00  8.8168161E+01  0.0000000E+00    53.8483245     0.1690261

         11    2.6918050E+01  1.4446675E+00  6.5000000E+00  8.8498831E+00  8.8168161E+01  0.0000000E+00    53.9689456     0.1878068
         12    2.7845905E+01  1.5891343E+00  6.5000000E+00  8.8498831E+00  8.8168161E+01  0.0000000E+00    54.0895667     0.2065875
         13    2.8773759E+01  1.7336010E+00  6.5000000E+00  8.8498831E+00  8.8168161E+01  0.0000000E+00    54.2101877     0.2253681
         14    2.9701614E+01  1.8780678E+00  6.5000000E+00  8.8498831E+00  8.8168161E+01  0.0000000E+00    54.3308088     0.2441488
