            Mach 5    THROAT VELOCITY DISTRIBUTION, X=O, RC=  6.000000

          DERIVATIVES TAKEN WITH RESPECT TO X/Y*, WOP= 0.34136118

          WOPP=  2.8328436E-03     WOPPP= -7.6881686E-02

          Y/YO       U/A*          V/A*           W           MACH NO.

         0.0000    0.96385164    0.00000000    0.96385164    0.95708127
         0.0227    0.96388554   -0.00032612    0.96388560    0.95712116
         0.0455    0.96398728   -0.00065147    0.96398750    0.95724089
         0.0682    0.96415691   -0.00097528    0.96415741    0.95744054
         0.0909    0.96439457   -0.00129676    0.96439544    0.95772027
         0.1136    0.96470042   -0.00161515    0.96470177    0.95808032
         0.1364    0.96507468   -0.00192964    0.96507661    0.95852097
         0.1591    0.96551762   -0.00223945    0.96552022    0.95904259
         0.1818    0.96602956   -0.00254375    0.96603291    0.95964562
         0.2045    0.96661088   -0.00284175    0.96661506    0.96033054

         0.2273    0.96726200   -0.00313259    0.96726707    0.96109794
         0.2500    0.96798341   -0.00341543    0.96798943    0.96194847
         0.2727    0.96877564   -0.00368939    0.96878266    0.96288284
         0.2955    0.96963929   -0.00395358    0.96964735    0.96390188
         0.3182    0.97057503   -0.00420707    0.97058415    0.96500647
         0.3409    0.97158358   -0.00444893    0.97159376    0.96619759
         0.3636    0.97266573   -0.00467817    0.97267698    0.96747630
         0.3864    0.97382233   -0.00489378    0.97383463    0.96884378
         0.4091    0.97505433   -0.00509470    0.97506764    0.97030128
         0.4318    0.97636271   -0.00527983    0.97637699    0.97185016

         0.4545    0.97774858   -0.00544804    0.97776376    0.97349191
         0.4773    0.97921309   -0.00559813    0.97922909    0.97522810
         0.5000    0.98075749   -0.00572885    0.98077422    0.97706044
         0.5227    0.98238312   -0.00583887    0.98240047    0.97899077
         0.5455    0.98409140   -0.00592683    0.98410925    0.98102105
         0.5682    0.98588388   -0.00599125    0.98590208    0.98315338
         0.5909    0.98776216   -0.00603061    0.98778057    0.98539001
         0.6136    0.98972800   -0.00604329    0.98974645    0.98773333
         0.6364    0.99178323   -0.00602755    0.99180154    0.99018592
         0.6591    0.99392981   -0.00598159    0.99394780    0.99275050

         0.6818    0.99616981   -0.00590345    0.99618731    0.99542999
         0.7045    0.99850546   -0.00579111    0.99852225    0.99822749
         0.7273    1.00093907   -0.00564236    1.00095497    1.00114630
         0.7500    1.00347313   -0.00545488    1.00348795    1.00418993
         0.7727    1.00611024   -0.00522622    1.00612381    1.00736213
         0.7955    1.00885316   -0.00495373    1.00886533    1.01066685
         0.8182    1.01170483   -0.00463462    1.01171544    1.01410833
         0.8409    1.01466830   -0.00426590    1.01467727    1.01769104
         0.8636    1.01774683   -0.00384438    1.01775409    1.02141974
         0.8864    1.02094383   -0.00336667    1.02094938    1.02529949

         0.9091    1.02426291   -0.00282915    1.02426681    1.02933565
         0.9318    1.02770784   -0.00222797    1.02771026    1.03353393
         0.9545    1.03128262   -0.00155902    1.03128380    1.03790036
         0.9773    1.03499143   -0.00081792    1.03499175    1.04244138
         1.0000    1.03883866   -0.00000000    1.03883866    1.04716380
          FROM CUBIC, X/Y* = 0.10589173 FOR W= 1.0

                      X/Y* = 0.30916405 FOR W= 1.06914498

          CORRECTED WOPPP= -7.5033231E-02

          RMASS = Y*/YO = 0.9997135747


          AXIAL VELOCITY DISTRIBUTION, Y=0

          X/Y*         W                 WP                WPP               M                 MP                MPP

         0.000     9.6385164E-01     3.4136118E-01     2.8328436E-03     9.5708127E-01     4.0106175E-01     8.1394664E-02
         0.100     9.9798942E-01     3.4126930E-01    -4.6704794E-03     9.9758876E-01     4.0903012E-01     7.7920331E-02
         0.200     1.0320805E+00     3.4042708E-01    -1.2173802E-02     1.0388752E+00     4.1663401E-01     7.4091422E-02
         0.300     1.0660498E+00     3.3883454E-01    -1.9677126E-02     1.0809021E+00     4.2383370E-01     6.9820989E-02
       0.30913716  1.0691450E+00     3.3865161E-01    -2.0362716E-02     1.0847776E+00     4.2446977E-01     6.9405507E-02
         0.400     1.0998224E+00     3.3649166E-01    -2.7180449E-02     1.1236268E+00     4.3058029E-01     6.5012734E-02
         0.500     1.1333231E+00     3.3339845E-01    -3.4683772E-02     1.1670011E+00     4.3681479E-01     5.9560535E-02
         0.600     1.1664771E+00     3.2955490E-01    -4.2187095E-02     1.2109704E+00     4.4246707E-01     5.3348148E-02
         0.700     1.1992091E+00     3.2496103E-01    -4.9690418E-02     1.2554724E+00     4.4745488E-01     4.6249172E-02
         0.800     1.2314443E+00     3.1961682E-01    -5.7193741E-02     1.3004360E+00     4.5168282E-01     3.8127370E-02
         0.900     1.2631075E+00     3.1352228E-01    -6.4697064E-02     1.3457800E+00     4.5504143E-01     2.8837498E-02
         1.000     1.2941237E+00     3.0667741E-01    -7.2200387E-02     1.3914112E+00     4.5740630E-01     1.8226785E-02
1   Mach 5    INVISCID CONTOUR, 4TH-DEGAXIAL MACH NUMBER DISTRIBUTION FROM THROAT CHARACTERISTIC WHICH HAS  45 POINTS

     NO. OF POINTS ON 1ST CHAR. (M)= 61     NO. OF POINTS ON AXIS (N)= 41     EPSI/ETA= 0.00000    BMACH=  5.00000    CMACH=  5.00000

     GAMMA= 1.4000     INFLECTION ANG. (ETA)= 60.0000  DEGREES     RAD. OF CURV. (RC)=   6.000000     SCALE FACTOR (SF)=   0.13000000

     Y*=1.00000000    RMASS=0.99971357    WWO= 1.0388387    WWOP= 0.39255278    EMACH= 5.00000    FMACH= 5.0000000    GMACH=  0.00000

          WI=  1.06914498    WIP=  0.33865161    WIPP= -2.0362716E-02    MI=  1.08477764    MIP=  0.42446977    MIPP=  6.9405507E-02

          C1=  1.0847776   C2=  5.72568072   C3=  6.3142920E+00   C4= -1.4144737E+01   C5=  6.0199864E+00   C6=  0.0000000E+00

          XOI=  0.10589746   XI=  0.30913716   XO=  0.00000000   YO=  1.00028651   XIE= 13.48901886   XE= 13.79815602    0 ITERATIONS

          MACH 0.95708127 AT 55.0219031 IN.,   MACH 1 AT 55.0356697 IN.,   MACH 1.08477764 AT 55.0620909 IN.

  AXIS
 POINT    X       X(IN)   MACH NO.    DM/DX        D2M/DX2       D3M/DX3       W=Q/A*     DW/DX        D2W/DX2       D3W/DX3

   1  13.79816  56.81566  5.000000  5.267564E-16  7.810152E-17  2.428774E-02  2.236068  3.926211E-17  5.821343E-18  1.810301E-03
   2  13.19723  56.73754  4.999145  4.227460E-03 -1.380718E-02  2.166530E-02  2.236004  3.152310E-04 -1.030233E-03  1.622058E-03
   3  12.60851  56.66101  4.993549  1.596221E-02 -2.580578E-02  1.909611E-02  2.235586  1.193598E-03 -1.939201E-03  1.474279E-03
   4  12.03205  56.58607  4.979470  3.387170E-02 -3.608880E-02  1.658044E-02  2.234530  2.550732E-03 -2.761010E-03  1.387991E-03
   5  11.46792  56.51273  4.954142  5.673807E-02 -4.474788E-02  1.411859E-02  2.232610  4.327397E-03 -3.536426E-03  1.373528E-03
   6  10.91619  56.44101  4.915649  8.345346E-02 -5.187329E-02  1.171084E-02  2.229646  6.489754E-03 -4.307787E-03  1.435991E-03
   7  10.37693  56.37090  4.862813  1.130153E-01 -5.755395E-02  9.357509E-03  2.225482  9.027458E-03 -5.116861E-03  1.578988E-03
   8   9.85022  56.30243  4.795088  1.445218E-01 -6.187736E-02  7.058909E-03  2.219977  1.195110E-02 -6.004481E-03  1.806914E-03
   9   9.33611  56.23560  4.712465  1.771670E-01 -6.492965E-02  4.815368E-03  2.212997  1.528973E-02 -7.011065E-03  2.126179E-03
  10   8.83471  56.17041  4.615380  2.102368E-01 -6.679553E-02  2.627224E-03  2.204403  1.908876E-02 -8.177466E-03  2.545692E-03

  11   8.34608  56.10689  4.504637  2.431040E-01 -6.755830E-02  4.948330E-04  2.194047  2.340827E-02 -9.545758E-03  3.076787E-03
  12   7.87030  56.04504  4.381329  2.752241E-01 -6.729981E-02 -1.581440E-03  2.181772  2.832145E-02 -1.115970E-02  3.732624E-03
  13   7.40748  55.98488  4.246775  3.061306E-01 -6.610048E-02 -3.601213E-03  2.167404  3.391309E-02 -1.306462E-02  4.526991E-03
  14   6.95769  55.92640  4.102457  3.354313E-01 -6.403926E-02 -5.564087E-03  2.150757  4.027765E-02 -1.530652E-02  5.472342E-03
  15   6.52104  55.86964  3.949968  3.628033E-01 -6.119365E-02 -7.469648E-03  2.131630  4.751656E-02 -1.793011E-02  6.576839E-03
  16   6.09762  55.81459  3.790964  3.879892E-01 -5.763964E-02 -9.317460E-03  2.109817  5.573441E-02 -2.097548E-02  7.840198E-03
  17   5.68753  55.76128  3.627122  4.107927E-01 -5.345175E-02 -1.110707E-02  2.085103  6.503357E-02 -2.447325E-02  9.248191E-03
  18   5.29089  55.70972  3.460101  4.310746E-01 -4.870299E-02 -1.283800E-02  2.057283  7.550695E-02 -2.843794E-02  1.076593E-02
  19   4.90782  55.65992  3.291518  4.487487E-01 -4.346486E-02 -1.450975E-02  2.026167  8.722866E-02 -3.285985E-02  1.233049E-02
  20   4.53842  55.61190  3.122913  4.637777E-01 -3.780731E-02 -1.612178E-02  1.991597  1.002428E-01 -3.769591E-02  1.384390E-02

  21   4.18284  55.56567  2.955735  4.761695E-01 -3.179879E-02 -1.767355E-02  1.953463  1.145511E-01 -4.286055E-02  1.516853E-02
  22   3.84120  55.52126  2.791322  4.859727E-01 -2.550618E-02 -1.916445E-02  1.911724  1.300997E-01 -4.821858E-02  1.612720E-02
  23   3.51366  55.47868  2.630889  4.932736E-01 -1.899481E-02 -2.059387E-02  1.866428  1.467685E-01 -5.358209E-02  1.651075E-02
  24   3.20035  55.43795  2.475519  4.981916E-01 -1.232849E-02 -2.196113E-02  1.817731  1.643633E-01 -5.871413E-02  1.609515E-02
  25   2.90146  55.39909  2.326160  5.008762E-01 -5.569435E-03 -2.326552E-02  1.765910  1.826148E-01 -6.334094E-02  1.466809E-02
  26   2.61714  55.36213  2.183619  5.015026E-01  1.221658E-03 -2.450627E-02  1.711376  2.011859E-01 -6.717343E-02  1.206248E-02
  27   2.34760  55.32709  2.048569  5.002688E-01  7.985640E-03 -2.568255E-02  1.654671  2.196877E-01 -6.993647E-02  8.190664E-03
  28   2.09304  55.29400  1.921549  4.973918E-01  1.466488E-02 -2.679346E-02  1.596461  2.377051E-01 -7.140182E-02  3.071210E-03
  29   1.85368  55.26288  1.802974  4.931041E-01  2.120322E-02 -2.783804E-02  1.537515  2.548278E-01 -7.141927E-02 -3.159876E-03
  30   1.62976  55.23377  1.693145  4.876504E-01  2.754594E-02 -2.881520E-02  1.478674  2.706836E-01 -6.993960E-02 -1.025826E-02

  31   1.42157  55.20671  1.592260  4.812844E-01  3.363970E-02 -2.972376E-02  1.420821  2.849688E-01 -6.702484E-02 -1.790013E-02
  32   1.22939  55.18172  1.500427  4.742657E-01  3.943238E-02 -3.056241E-02  1.364844  2.974715E-01 -6.284369E-02 -2.572435E-02
  33   1.05359  55.15887  1.417684  4.668569E-01  4.487295E-02 -3.132964E-02  1.311600  3.080835E-01 -5.765399E-02 -3.337805E-02
  34   0.89453  55.13819  1.344017  4.593205E-01  4.991123E-02 -3.202374E-02  1.261892  3.168013E-01 -5.177641E-02 -4.055543E-02
  35   0.75269  55.11975  1.279384  4.519167E-01  5.449746E-02 -3.264275E-02  1.216456  3.237157E-01 -4.556520E-02 -4.702261E-02
  36   0.62860  55.10362  1.223735  4.449014E-01  5.858173E-02 -3.318428E-02  1.175950  3.289934E-01 -3.938143E-02 -5.262593E-02
  37   0.52292  55.08988  1.177054  4.385246E-01  6.211284E-02 -3.364545E-02  1.140975  3.328525E-01 -3.357282E-02 -5.728500E-02
  38   0.43651  55.07865  1.139396  4.330314E-01  6.503642E-02 -3.402254E-02  1.112094  3.355350E-01 -2.846253E-02 -6.097441E-02
  39   0.37053  55.07007  1.110967  4.286659E-01  6.729082E-02 -3.431049E-02  1.089895  3.372783E-01 -2.434893E-02 -6.369745E-02
  40   0.32677  55.06438  1.092272  4.256881E-01  6.879654E-02 -3.450147E-02  1.075112  3.382824E-01 -2.152279E-02 -6.545092E-02

  41   0.30914  55.06209  1.084778  4.244698E-01  6.940551E-02 -3.457841E-02  1.069145  3.386516E-01 -2.036272E-02 -6.614439E-02
    Mach 5    THROAT CHARACTERISTIC
             
        POINT        X              Y          MACH NO.      MACH ANG.(D)     PSI (D)     FLOW ANG.(D)        X(IN)         Y(IN)

          1    3.0913716E-01  0.0000000E+00  1.0847776E+00  6.7197746E+01  1.0529038E+00  0.0000000E+00    55.0620909     0.0000000
          2    2.9968938E-01  2.2733784E-02  1.0808196E+00  6.7702118E+01  9.8245330E-01  3.4811254E-02    55.0608627     0.0029554
          3    2.9045753E-01  4.5467569E-02  1.0770581E+00  6.8195247E+01  9.1681691E-01  6.6427763E-02    55.0596625     0.0059108
          4    2.8143631E-01  6.8201353E-02  1.0734886E+00  6.8676517E+01  8.5576299E-01  9.5024047E-02    55.0584898     0.0088662
          5    2.7262016E-01  9.0935137E-02  1.0701068E+00  6.9145286E+01  7.9906689E-01  1.2076881E-01    55.0573437     0.0118216
          6    2.6400330E-01  1.1366892E-01  1.0669086E+00  6.9600893E+01  7.4651091E-01  1.4382499E-01    55.0562235     0.0147770
          7    2.5557964E-01  1.3640271E-01  1.0638898E+00  7.0042658E+01  6.9788437E-01  1.6434976E-01    55.0551284     0.0177324
          8    2.4734286E-01  1.5913649E-01  1.0610463E+00  7.0469885E+01  6.5298359E-01  1.8249452E-01    55.0540576     0.0206877
          9    2.3928637E-01  1.8187027E-01  1.0583743E+00  7.0881870E+01  6.1161200E-01  1.9840486E-01    55.0530103     0.0236431
         10    2.3140329E-01  2.0460406E-01  1.0558697E+00  7.1277900E+01  5.7358019E-01  2.1222051E-01    55.0519855     0.0265985

         11    2.2368649E-01  2.2733784E-01  1.0535288E+00  7.1657260E+01  5.3870607E-01  2.2407524E-01    55.0509823     0.0295539
         12    2.1612856E-01  2.5007163E-01  1.0513475E+00  7.2019244E+01  5.0681496E-01  2.3409680E-01    55.0499998     0.0325093
         13    2.0872186E-01  2.7280541E-01  1.0493223E+00  7.2363158E+01  4.7773972E-01  2.4240679E-01    55.0490369     0.0354647
         14    2.0145844E-01  2.9553920E-01  1.0474492E+00  7.2688328E+01  4.5132091E-01  2.4912055E-01    55.0480926     0.0384201
         15    1.9433017E-01  3.1827298E-01  1.0457246E+00  7.2994111E+01  4.2740693E-01  2.5434708E-01    55.0471660     0.0413755
         16    1.8732865E-01  3.4100676E-01  1.0441447E+00  7.3279902E+01  4.0585415E-01  2.5818887E-01    55.0462558     0.0443309
         17    1.8044527E-01  3.6374055E-01  1.0427059E+00  7.3545146E+01  3.8652703E-01  2.6074190E-01    55.0453609     0.0472863
         18    1.7367127E-01  3.8647433E-01  1.0414044E+00  7.3789343E+01  3.6929826E-01  2.6209546E-01    55.0444803     0.0502417
         19    1.6699767E-01  4.0920812E-01  1.0402367E+00  7.4012062E+01  3.5404880E-01  2.6233217E-01    55.0436127     0.0531971
         20    1.6041539E-01  4.3194190E-01  1.0391991E+00  7.4212946E+01  3.4066795E-01  2.6152787E-01    55.0427571     0.0561524

         21    1.5391523E-01  4.5467569E-01  1.0382882E+00  7.4391723E+01  3.2905341E-01  2.5975170E-01    55.0419120     0.0591078
         22    1.4748792E-01  4.7740947E-01  1.0375005E+00  7.4548207E+01  3.1911120E-01  2.5706604E-01    55.0410765     0.0620632
         23    1.4112417E-01  5.0014325E-01  1.0368326E+00  7.4682307E+01  3.1075568E-01  2.5352664E-01    55.0402492     0.0650186
         24    1.3481466E-01  5.2287704E-01  1.0362811E+00  7.4794027E+01  3.0390939E-01  2.4918267E-01    55.0394290     0.0679740
         25    1.2855012E-01  5.4561082E-01  1.0358428E+00  7.4883468E+01  2.9850296E-01  2.4407688E-01    55.0386146     0.0709294
         26    1.2232136E-01  5.6834461E-01  1.0355147E+00  7.4950826E+01  2.9447491E-01  2.3824575E-01    55.0378048     0.0738848
         27    1.1611931E-01  5.9107839E-01  1.0352937E+00  7.4996385E+01  2.9177149E-01  2.3171969E-01    55.0369986     0.0768402
         28    1.0993502E-01  6.1381217E-01  1.0351769E+00  7.5020517E+01  2.9034637E-01  2.2452324E-01    55.0361946     0.0797956
         29    1.0375973E-01  6.3654596E-01  1.0351617E+00  7.5023671E+01  2.9016044E-01  2.1667534E-01    55.0353918     0.0827510
         30    9.7584884E-02  6.5927974E-01  1.0352454E+00  7.5006365E+01  2.9118151E-01  2.0818956E-01    55.0345891     0.0857064

         31    9.1402159E-02  6.8201353E-01  1.0354256E+00  7.4969175E+01  2.9338401E-01  1.9907434E-01    55.0337853     0.0886618
         32    8.5203476E-02  7.0474731E-01  1.0357001E+00  7.4912727E+01  2.9674869E-01  1.8933332E-01    55.0329795     0.0916172
         33    7.8981021E-02  7.2748110E-01  1.0360668E+00  7.4837682E+01  3.0126232E-01  1.7896553E-01    55.0321706     0.0945725
         34    7.2727262E-02  7.5021488E-01  1.0365238E+00  7.4744732E+01  3.0691743E-01  1.6796567E-01    55.0313576     0.0975279
         35    6.6434949E-02  7.7294866E-01  1.0370695E+00  7.4634583E+01  3.1371200E-01  1.5632434E-01    55.0305396     0.1004833
         36    6.0097126E-02  7.9568245E-01  1.0377023E+00  7.4507948E+01  3.2164920E-01  1.4402826E-01    55.0297157     0.1034387
         37    5.3707124E-02  8.1841623E-01  1.0384209E+00  7.4365542E+01  3.3073716E-01  1.3106048E-01    55.0288850     0.1063941
         38    4.7258563E-02  8.4115002E-01  1.0392241E+00  7.4208067E+01  3.4098878E-01  1.1740052E-01    55.0280467     0.1093495
         39    4.0745346E-02  8.6388380E-01  1.0401111E+00  7.4036213E+01  3.5242148E-01  1.0302455E-01    55.0271999     0.1123049
         40    3.4161648E-02  8.8661759E-01  1.0410811E+00  7.3850645E+01  3.6505709E-01  8.7905506E-02    55.0263441     0.1152603

         41    2.7501911E-02  9.0935137E-01  1.0421336E+00  7.3652006E+01  3.7892168E-01  7.2013171E-02    55.0254783     0.1182157
         42    2.0760830E-02  9.3208515E-01  1.0432682E+00  7.3440909E+01  3.9404549E-01  5.5314267E-02    55.0246020     0.1211711
         43    1.3933340E-02  9.5481894E-01  1.0444847E+00  7.3217934E+01  4.1046283E-01  3.7772484E-02    55.0237144     0.1241265
         44    7.0146040E-03  9.7755272E-01  1.0457832E+00  7.2983628E+01  4.2821204E-01  1.9348505E-02    55.0228149     0.1270819
         45    0.0000000E+00  1.0002865E+00  1.0471638E+00  7.2738506E+01  4.4733546E-01  0.0000000E+00    55.0219031     0.1300372
1   Mach 5    INVISCID CONTOUR

  CHARACT   1
        POINT        X              Y          MACH NO.     MACH ANG.(D)      PSI (D)      FLOW ANG.(D)       X(IN)         Y(IN)

          1    1.3798156E+01  0.0000000E+00  5.0000000E+00  1.1536959E+01  7.6920216E+01  0.0000000E+00    56.8156633     0.0000000
          2    1.4206404E+01  8.3333333E-02  5.0000000E+00  1.1536959E+01  7.6920216E+01  0.0000000E+00    56.8687356     0.0108333
          3    1.4614653E+01  1.6666667E-01  5.0000000E+00  1.1536959E+01  7.6920216E+01  0.0000000E+00    56.9218079     0.0216667
          4    1.5022901E+01  2.5000000E-01  5.0000000E+00  1.1536959E+01  7.6920216E+01  0.0000000E+00    56.9748802     0.0325000
          5    1.5431149E+01  3.3333333E-01  5.0000000E+00  1.1536959E+01  7.6920216E+01  0.0000000E+00    57.0279524     0.0433333
          6    1.5839397E+01  4.1666667E-01  5.0000000E+00  1.1536959E+01  7.6920216E+01  0.0000000E+00    57.0810247     0.0541667
          7    1.6247646E+01  5.0000000E-01  5.0000000E+00  1.1536959E+01  7.6920216E+01  0.0000000E+00    57.1340970     0.0650000
          8    1.6655894E+01  5.8333333E-01  5.0000000E+00  1.1536959E+01  7.6920216E+01  0.0000000E+00    57.1871693     0.0758333
          9    1.7064142E+01  6.6666667E-01  5.0000000E+00  1.1536959E+01  7.6920216E+01  0.0000000E+00    57.2402416     0.0866667
         10    1.7472391E+01  7.5000000E-01  5.0000000E+00  1.1536959E+01  7.6920216E+01  0.0000000E+00    57.2933138     0.0975000

         11    1.7880639E+01  8.3333333E-01  5.0000000E+00  1.1536959E+01  7.6920216E+01  0.0000000E+00    57.3463861     0.1083333
         12    1.8288887E+01  9.1666667E-01  5.0000000E+00  1.1536959E+01  7.6920216E+01  0.0000000E+00    57.3994584     0.1191667
         13    1.8697136E+01  1.0000000E+00  5.0000000E+00  1.1536959E+01  7.6920216E+01  0.0000000E+00    57.4525307     0.1300000
         14    1.9105384E+01  1.0833333E+00  5.0000000E+00  1.1536959E+01  7.6920216E+01  0.0000000E+00    57.5056029     0.1408333
