           Mach 11    THROAT VELOCITY DISTRIBUTION, X=O, RC=  6.000000

          DERIVATIVES TAKEN WITH RESPECT TO X/Y*, WOP= 0.34136118

          WOPP=  2.8328436E-03     WOPPP= -7.6881686E-02

          Y/YO       U/A*          V/A*           W           MACH NO.

         0.0000    0.96385164   -0.00000000    0.96385164    0.95708127
         0.0227    0.96388554   -0.00032612    0.96388560    0.95712116
         0.0455    0.96398728   -0.00065147    0.96398750    0.95724089
         0.0682    0.96415691   -0.00097528    0.96415741    0.95744054
         0.0909    0.96439457   -0.00129676    0.96439544    0.95772027
         0.1136    0.96470042   -0.00161515    0.96470177    0.95808032
         0.1364    0.96507468   -0.00192964    0.96507661    0.95852097
         0.1591    0.96551762   -0.00223945    0.96552022    0.95904259
         0.1818    0.96602956   -0.00254375    0.96603291    0.95964562
         0.2045    0.96661088   -0.00284175    0.96661506    0.96033054

         0.2273    0.96726200   -0.00313259    0.96726707    0.96109794
         0.2500    0.96798341   -0.00341543    0.96798943    0.96194847
         0.2727    0.96877564   -0.00368939    0.96878266    0.96288284
         0.2955    0.96963929   -0.00395358    0.96964735    0.96390188
         0.3182    0.97057503   -0.00420707    0.97058415    0.96500647
         0.3409    0.97158358   -0.00444893    0.97159376    0.96619759
         0.3636    0.97266573   -0.00467817    0.97267698    0.96747630
         0.3864    0.97382233   -0.00489378    0.97383463    0.96884378
         0.4091    0.97505433   -0.00509470    0.97506764    0.97030128
         0.4318    0.97636271   -0.00527983    0.97637699    0.97185016

         0.4545    0.97774858   -0.00544804    0.97776376    0.97349191
         0.4773    0.97921309   -0.00559813    0.97922909    0.97522810
         0.5000    0.98075749   -0.00572885    0.98077422    0.97706044
         0.5227    0.98238312   -0.00583887    0.98240047    0.97899077
         0.5455    0.98409140   -0.00592683    0.98410925    0.98102105
         0.5682    0.98588388   -0.00599125    0.98590208    0.98315338
         0.5909    0.98776216   -0.00603061    0.98778057    0.98539001
         0.6136    0.98972800   -0.00604329    0.98974645    0.98773333
         0.6364    0.99178323   -0.00602755    0.99180154    0.99018592
         0.6591    0.99392981   -0.00598159    0.99394780    0.99275050

         0.6818    0.99616981   -0.00590345    0.99618731    0.99542999
         0.7045    0.99850546   -0.00579111    0.99852225    0.99822749
         0.7273    1.00093907   -0.00564236    1.00095497    1.00114630
         0.7500    1.00347313   -0.00545488    1.00348795    1.00418993
         0.7727    1.00611024   -0.00522622    1.00612381    1.00736213
         0.7955    1.00885316   -0.00495373    1.00886533    1.01066685
         0.8182    1.01170483   -0.00463462    1.01171544    1.01410833
         0.8409    1.01466830   -0.00426590    1.01467727    1.01769104
         0.8636    1.01774683   -0.00384438    1.01775409    1.02141974
         0.8864    1.02094383   -0.00336667    1.02094938    1.02529949

         0.9091    1.02426291   -0.00282915    1.02426681    1.02933565
         0.9318    1.02770784   -0.00222797    1.02771026    1.03353393
         0.9545    1.03128262   -0.00155902    1.03128380    1.03790036
         0.9773    1.03499143   -0.00081792    1.03499175    1.04244138
         1.0000    1.03883866   -0.00000000    1.03883866    1.04716380
          FROM CUBIC, X/Y* = 0.10589173 FOR W= 1.0

                      X/Y* = 0.30916405 FOR W= 1.06914498

          CORRECTED WOPPP= -7.5033231E-02

          RMASS = Y*/YO = 0.9997135747


          AXIAL VELOCITY DISTRIBUTION, Y=0

          X/Y*         W                 WP                WPP               M                 MP                MPP

         0.000     9.6385164E-01     3.4136118E-01     2.8328436E-03     9.5708127E-01     4.0106175E-01     8.1394664E-02
         0.100     9.9798942E-01     3.4126930E-01    -4.6704794E-03     9.9758876E-01     4.0903012E-01     7.7920331E-02
         0.200     1.0320805E+00     3.4042708E-01    -1.2173802E-02     1.0388752E+00     4.1663401E-01     7.4091422E-02
         0.300     1.0660498E+00     3.3883454E-01    -1.9677126E-02     1.0809021E+00     4.2383370E-01     6.9820989E-02
       0.30913716  1.0691450E+00     3.3865161E-01    -2.0362716E-02     1.0847776E+00     4.2446977E-01     6.9405507E-02
         0.400     1.0998224E+00     3.3649166E-01    -2.7180449E-02     1.1236268E+00     4.3058029E-01     6.5012734E-02
         0.500     1.1333231E+00     3.3339845E-01    -3.4683772E-02     1.1670011E+00     4.3681479E-01     5.9560535E-02
         0.600     1.1664771E+00     3.2955490E-01    -4.2187095E-02     1.2109704E+00     4.4246707E-01     5.3348148E-02
         0.700     1.1992091E+00     3.2496103E-01    -4.9690418E-02     1.2554724E+00     4.4745488E-01     4.6249172E-02
         0.800     1.2314443E+00     3.1961682E-01    -5.7193741E-02     1.3004360E+00     4.5168282E-01     3.8127370E-02
         0.900     1.2631075E+00     3.1352228E-01    -6.4697064E-02     1.3457800E+00     4.5504143E-01     2.8837498E-02
         1.000     1.2941237E+00     3.0667741E-01    -7.2200387E-02     1.3914112E+00     4.5740630E-01     1.8226785E-02
1  Mach 11    INVISCID CONTOUR, 4TH-DEGAXIAL MACH NUMBER DISTRIBUTION FROM THROAT CHARACTERISTIC WHICH HAS  45 POINTS

     NO. OF POINTS ON 1ST CHAR. (M)= 61     NO. OF POINTS ON AXIS (N)= 41     EPSI/ETA= 0.00000    BMACH= 11.00000    CMACH= 11.00000

     GAMMA= 1.4000     INFLECTION ANG. (ETA)= 60.0000  DEGREES     RAD. OF CURV. (RC)=   6.000000     SCALE FACTOR (SF)=   0.13000000

     Y*=1.00000000    RMASS=0.99971357    WWO= 1.0388387    WWOP= 0.39255278    EMACH=11.00000    FMACH=11.0000000    GMACH=  0.00000

          WI=  1.06914498    WIP=  0.33865161    WIPP= -2.0362716E-02    MI=  1.08477764    MIP=  0.42446977    MIPP=  6.9405507E-02

          C1=  1.0847776   C2= 11.43517397   C3=  2.5185812E+01   C4= -4.5016257E+01   C5=  1.8310493E+01   C6=  0.0000000E+00

          XOI=  0.10589746   XI=  0.30913716   XO=  0.00000000   YO=  1.00028651   XIE= 26.93990200   XE= 27.24903916    0 ITERATIONS

          MACH 0.95708127 AT  0.0000000 IN.,   MACH 1 AT  0.0137667 IN.,   MACH 1.08477764 AT  0.0401878 IN.

  AXIS
 POINT    X       X(IN)   MACH NO.    DM/DX        D2M/DX2       D3M/DX3       W=Q/A*     DW/DX        D2W/DX2       D3W/DX3

   1  27.24904   3.54238 11.000000  3.296888E-16  1.958070E-17  8.661800E-03  2.400397  2.854920E-18  1.695579E-19  7.500634E-05
   2  26.04889   3.38636 10.997577  5.997707E-03 -9.794624E-03  7.660502E-03  2.400376  5.196976E-05 -8.495147E-05  6.677798E-05
   3  24.87310   3.23350 10.981745  2.258322E-02 -1.822501E-02  6.679535E-03  2.400238  1.964960E-04 -1.597393E-04  6.094560E-05
   4  23.72182   3.08384 10.942030  4.777998E-02 -2.536215E-02  5.719005E-03  2.399891  4.200931E-04 -2.282727E-04  5.878269E-05
   5  22.59516   2.93737 10.870794  7.978536E-02 -3.127600E-02  4.779023E-03  2.399259  7.148080E-04 -2.953059E-04  6.099435E-05
   6  21.49326   2.79412 10.762877  1.169635E-01 -3.603549E-02  3.859700E-03  2.398278  1.078407E-03 -3.659515E-04  6.812703E-05
   7  20.41627   2.65411 10.615252  1.578383E-01 -3.970850E-02  2.961153E-03  2.396889  1.514204E-03 -4.456133E-04  8.086156E-05
   8  19.36432   2.51736 10.426712  2.010861E-01 -4.236185E-02  2.083504E-03  2.395034  2.030923E-03 -5.401815E-04  1.002288E-04
   9  18.33757   2.38388 10.197580  2.455288E-01 -4.406132E-02  1.226877E-03  2.392644  2.642799E-03 -6.563990E-04  1.277966E-04
  10  17.33617   2.25370  9.929446  2.901272E-01 -4.487159E-02  3.914020E-04  2.389646  3.370022E-03 -8.023605E-04  1.658711E-04

  11  16.36029   2.12684  9.624921  3.339737E-01 -4.485627E-02 -4.227857E-04  2.385948  4.239574E-03 -9.881459E-04  2.177480E-04
  12  15.41009   2.00331  9.287418  3.762859E-01 -4.407790E-02 -1.215546E-03  2.381440  5.286528E-03 -1.226616E-03  2.880464E-04
  13  14.48575   1.88315  8.920956  4.163999E-01 -4.259790E-02 -1.986734E-03  2.375988  6.555836E-03 -1.534411E-03  3.831561E-04
  14  13.58745   1.76637  8.529978  4.537633E-01 -4.047659E-02 -2.736197E-03  2.369430  8.104687E-03 -1.933206E-03  5.118243E-04
  15  12.71537   1.65300  8.119194  4.879292E-01 -3.777317E-02 -3.463776E-03  2.361566  1.000546E-02 -2.451261E-03  6.859029E-04
  16  11.86973   1.54306  7.693440  5.185493E-01 -3.454573E-02 -4.169306E-03  2.352154  1.234936E-02 -3.125300E-03  9.212467E-04
  17  11.05072   1.43659  7.257555  5.453679E-01 -3.085122E-02 -4.852613E-03  2.340901  1.525059E-02 -4.002663E-03  1.238699E-03
  18  10.25857   1.33361  6.816275  5.682151E-01 -2.674543E-02 -5.513515E-03  2.327454  1.885095E-02 -5.143589E-03  1.664982E-03
  19   9.49350   1.23415  6.374147  5.870014E-01 -2.228304E-02 -6.151819E-03  2.311392  2.332451E-02 -6.623236E-03  2.233094E-03
  20   8.75575   1.13825  5.935449  6.017106E-01 -1.751754E-02 -6.767325E-03  2.292222  2.888121E-02 -8.532697E-03  2.981482E-03

  21   8.04559   1.04593  5.504134  6.123946E-01 -1.250126E-02 -7.359819E-03  2.269368  3.576829E-02 -1.097773E-02  3.950739E-03
  22   7.36328   0.95723  5.083779  6.191669E-01 -7.285394E-03 -7.929076E-03  2.242184  4.426702E-02 -1.407319E-02  5.175993E-03
  23   6.70912   0.87219  4.677557  6.221973E-01 -1.919929E-03 -8.474854E-03  2.209957  5.468157E-02 -1.793056E-02  6.672727E-03
  24   6.08339   0.79084  4.288210  6.217055E-01  3.546303E-03 -8.996900E-03  2.171942  6.731626E-02 -2.263548E-02  8.414110E-03
  25   5.48645   0.71324  3.918039  6.179560E-01  9.065644E-03 -9.494940E-03  2.127410  8.243727E-02 -2.821347E-02  1.030010E-02
  26   4.91862   0.63942  3.568903  6.112521E-01  1.459160E-02 -9.968682E-03  2.075723  1.002174E-01 -3.458515E-02  1.212375E-02
  27   4.38030   0.56944  3.242230  6.019311E-01  2.007884E-02 -1.041781E-02  2.016438  1.206670E-01 -4.151883E-02  1.354834E-02
  28   3.87189   0.50335  2.939029  5.903582E-01  2.548315E-02 -1.084198E-02  1.949422  1.435622E-01 -4.859714E-02  1.411728E-02
  29   3.39385   0.44120  2.659922  5.769220E-01  3.076145E-02 -1.124082E-02  1.874984  1.683922E-01 -5.522141E-02  1.331910E-02
  30   2.94665   0.38306  2.405170  5.620292E-01  3.587171E-02 -1.161391E-02  1.793967  1.943497E-01 -6.067512E-02  1.071311E-02

  31   2.53085   0.32901  2.174719  5.460998E-01  4.077291E-02 -1.196082E-02  1.707795  2.203882E-01 -6.425003E-02  6.086127E-03
  32   2.14705   0.27912  1.968241  5.295622E-01  4.542495E-02 -1.228103E-02  1.618434  2.453497E-01 -6.540809E-02 -4.253457E-04
  33   1.79593   0.23347  1.785190  5.128496E-01  4.978849E-02 -1.257397E-02  1.528271  2.681365E-01 -6.392515E-02 -8.317557E-03
  34   1.47827   0.19218  1.624860  4.963951E-01  5.382479E-02 -1.283900E-02  1.439926  2.878847E-01 -5.996020E-02 -1.683205E-02
  35   1.19499   0.15535  1.486447  4.806290E-01  5.749536E-02 -1.307534E-02  1.356038  3.040854E-01 -5.402397E-02 -2.515390E-02
  36   0.94716   0.12313  1.369132  4.659762E-01  6.076145E-02 -1.328211E-02  1.279086  3.166253E-01 -4.686558E-02 -3.260687E-02
  37   0.73611   0.09569  1.272161  4.528554E-01  6.358323E-02 -1.345819E-02  1.211271  3.257438E-01 -3.932802E-02 -3.876903E-02
  38   0.56353   0.07326  1.194968  4.416814E-01  6.591820E-02 -1.360218E-02  1.154505  3.319297E-01 -3.222522E-02 -4.348384E-02
  39   0.43175   0.05613  1.137341  4.328763E-01  6.771793E-02 -1.371212E-02  1.110500  3.357890E-01 -2.627389E-02 -4.679012E-02
  40   0.34435   0.04477  1.099767  4.269051E-01  6.891959E-02 -1.378504E-02  1.081057  3.379040E-01 -2.209499E-02 -4.880892E-02

  41   0.30914   0.04019  1.084778  4.244698E-01  6.940551E-02 -1.381442E-02  1.069145  3.386516E-01 -2.036272E-02 -4.957840E-02
   Mach 11    THROAT CHARACTERISTIC
             
        POINT        X              Y          MACH NO.      MACH ANG.(D)     PSI (D)     FLOW ANG.(D)        X(IN)         Y(IN)

          1    3.0913716E-01  0.0000000E+00  1.0847776E+00  6.7197746E+01  1.0529038E+00  0.0000000E+00     0.0401878     0.0000000
          2    2.9968938E-01  2.2733784E-02  1.0808196E+00  6.7702118E+01  9.8245330E-01  3.4811254E-02     0.0389596     0.0029554
          3    2.9045753E-01  4.5467569E-02  1.0770581E+00  6.8195247E+01  9.1681691E-01  6.6427763E-02     0.0377595     0.0059108
          4    2.8143631E-01  6.8201353E-02  1.0734886E+00  6.8676517E+01  8.5576299E-01  9.5024047E-02     0.0365867     0.0088662
          5    2.7262016E-01  9.0935137E-02  1.0701068E+00  6.9145286E+01  7.9906689E-01  1.2076881E-01     0.0354406     0.0118216
          6    2.6400330E-01  1.1366892E-01  1.0669086E+00  6.9600893E+01  7.4651091E-01  1.4382499E-01     0.0343204     0.0147770
          7    2.5557964E-01  1.3640271E-01  1.0638898E+00  7.0042658E+01  6.9788437E-01  1.6434976E-01     0.0332254     0.0177324
          8    2.4734286E-01  1.5913649E-01  1.0610463E+00  7.0469885E+01  6.5298359E-01  1.8249452E-01     0.0321546     0.0206877
          9    2.3928637E-01  1.8187027E-01  1.0583743E+00  7.0881870E+01  6.1161200E-01  1.9840486E-01     0.0311072     0.0236431
         10    2.3140329E-01  2.0460406E-01  1.0558697E+00  7.1277900E+01  5.7358019E-01  2.1222051E-01     0.0300824     0.0265985

         11    2.2368649E-01  2.2733784E-01  1.0535288E+00  7.1657260E+01  5.3870607E-01  2.2407524E-01     0.0290792     0.0295539
         12    2.1612856E-01  2.5007163E-01  1.0513475E+00  7.2019244E+01  5.0681496E-01  2.3409680E-01     0.0280967     0.0325093
         13    2.0872186E-01  2.7280541E-01  1.0493223E+00  7.2363158E+01  4.7773972E-01  2.4240679E-01     0.0271338     0.0354647
         14    2.0145844E-01  2.9553920E-01  1.0474492E+00  7.2688328E+01  4.5132091E-01  2.4912055E-01     0.0261896     0.0384201
         15    1.9433017E-01  3.1827298E-01  1.0457246E+00  7.2994111E+01  4.2740693E-01  2.5434708E-01     0.0252629     0.0413755
         16    1.8732865E-01  3.4100676E-01  1.0441447E+00  7.3279902E+01  4.0585415E-01  2.5818887E-01     0.0243527     0.0443309
         17    1.8044527E-01  3.6374055E-01  1.0427059E+00  7.3545146E+01  3.8652703E-01  2.6074190E-01     0.0234579     0.0472863
         18    1.7367127E-01  3.8647433E-01  1.0414044E+00  7.3789343E+01  3.6929826E-01  2.6209546E-01     0.0225773     0.0502417
         19    1.6699767E-01  4.0920812E-01  1.0402367E+00  7.4012062E+01  3.5404880E-01  2.6233217E-01     0.0217097     0.0531971
         20    1.6041539E-01  4.3194190E-01  1.0391991E+00  7.4212946E+01  3.4066795E-01  2.6152787E-01     0.0208540     0.0561524

         21    1.5391523E-01  4.5467569E-01  1.0382882E+00  7.4391723E+01  3.2905341E-01  2.5975170E-01     0.0200090     0.0591078
         22    1.4748792E-01  4.7740947E-01  1.0375005E+00  7.4548207E+01  3.1911120E-01  2.5706604E-01     0.0191734     0.0620632
         23    1.4112417E-01  5.0014325E-01  1.0368326E+00  7.4682307E+01  3.1075568E-01  2.5352664E-01     0.0183461     0.0650186
         24    1.3481466E-01  5.2287704E-01  1.0362811E+00  7.4794027E+01  3.0390939E-01  2.4918267E-01     0.0175259     0.0679740
         25    1.2855012E-01  5.4561082E-01  1.0358428E+00  7.4883468E+01  2.9850296E-01  2.4407688E-01     0.0167115     0.0709294
         26    1.2232136E-01  5.6834461E-01  1.0355147E+00  7.4950826E+01  2.9447491E-01  2.3824575E-01     0.0159018     0.0738848
         27    1.1611931E-01  5.9107839E-01  1.0352937E+00  7.4996385E+01  2.9177149E-01  2.3171969E-01     0.0150955     0.0768402
         28    1.0993502E-01  6.1381217E-01  1.0351769E+00  7.5020517E+01  2.9034637E-01  2.2452324E-01     0.0142916     0.0797956
         29    1.0375973E-01  6.3654596E-01  1.0351617E+00  7.5023671E+01  2.9016044E-01  2.1667534E-01     0.0134888     0.0827510
         30    9.7584884E-02  6.5927974E-01  1.0352454E+00  7.5006365E+01  2.9118151E-01  2.0818956E-01     0.0126860     0.0857064

         31    9.1402159E-02  6.8201353E-01  1.0354256E+00  7.4969175E+01  2.9338401E-01  1.9907434E-01     0.0118823     0.0886618
         32    8.5203476E-02  7.0474731E-01  1.0357001E+00  7.4912727E+01  2.9674869E-01  1.8933332E-01     0.0110765     0.0916172
         33    7.8981021E-02  7.2748110E-01  1.0360668E+00  7.4837682E+01  3.0126232E-01  1.7896553E-01     0.0102675     0.0945725
         34    7.2727262E-02  7.5021488E-01  1.0365238E+00  7.4744732E+01  3.0691743E-01  1.6796567E-01     0.0094545     0.0975279
         35    6.6434949E-02  7.7294866E-01  1.0370695E+00  7.4634583E+01  3.1371200E-01  1.5632434E-01     0.0086365     0.1004833
         36    6.0097126E-02  7.9568245E-01  1.0377023E+00  7.4507948E+01  3.2164920E-01  1.4402826E-01     0.0078126     0.1034387
         37    5.3707124E-02  8.1841623E-01  1.0384209E+00  7.4365542E+01  3.3073716E-01  1.3106048E-01     0.0069819     0.1063941
         38    4.7258563E-02  8.4115002E-01  1.0392241E+00  7.4208067E+01  3.4098878E-01  1.1740052E-01     0.0061436     0.1093495
         39    4.0745346E-02  8.6388380E-01  1.0401111E+00  7.4036213E+01  3.5242148E-01  1.0302455E-01     0.0052969     0.1123049
         40    3.4161648E-02  8.8661759E-01  1.0410811E+00  7.3850645E+01  3.6505709E-01  8.7905506E-02     0.0044410     0.1152603

         41    2.7501911E-02  9.0935137E-01  1.0421336E+00  7.3652006E+01  3.7892168E-01  7.2013171E-02     0.0035752     0.1182157
         42    2.0760830E-02  9.3208515E-01  1.0432682E+00  7.3440909E+01  3.9404549E-01  5.5314267E-02     0.0026989     0.1211711
         43    1.3933340E-02  9.5481894E-01  1.0444847E+00  7.3217934E+01  4.1046283E-01  3.7772484E-02     0.0018113     0.1241265
         44    7.0146040E-03  9.7755272E-01  1.0457832E+00  7.2983628E+01  4.2821204E-01  1.9348505E-02     0.0009119     0.1270819
         45    0.0000000E+00  1.0002865E+00  1.0471638E+00  7.2738506E+01  4.4733546E-01  0.0000000E+00     0.0000000     0.1300372
1  Mach 11    INVISCID CONTOUR

  CHARACT   1
        POINT        X              Y          MACH NO.     MACH ANG.(D)      PSI (D)      FLOW ANG.(D)       X(IN)         Y(IN)

          1    2.7249039E+01  0.0000000E+00  1.1000000E+01  5.2159086E+00  1.0479568E+02  0.0000000E+00     3.5423751     0.0000000
          2    3.2546551E+01  4.8359450E-01  1.1000000E+01  5.2159086E+00  1.0479568E+02  0.0000000E+00     4.2310517     0.0628673
          3    3.7844064E+01  9.6718899E-01  1.1000000E+01  5.2159086E+00  1.0479568E+02  0.0000000E+00     4.9197283     0.1257346
          4    4.3141576E+01  1.4507835E+00  1.1000000E+01  5.2159086E+00  1.0479568E+02  0.0000000E+00     5.6084049     0.1886019
          5    4.8439088E+01  1.9343780E+00  1.1000000E+01  5.2159086E+00  1.0479568E+02  0.0000000E+00     6.2970815     0.2514691
          6    5.3736601E+01  2.4179725E+00  1.1000000E+01  5.2159086E+00  1.0479568E+02  0.0000000E+00     6.9857581     0.3143364
          7    5.9034113E+01  2.9015670E+00  1.1000000E+01  5.2159086E+00  1.0479568E+02  0.0000000E+00     7.6744347     0.3772037
          8    6.4331625E+01  3.3851615E+00  1.1000000E+01  5.2159086E+00  1.0479568E+02  0.0000000E+00     8.3631113     0.4400710
          9    6.9629137E+01  3.8687560E+00  1.1000000E+01  5.2159086E+00  1.0479568E+02  0.0000000E+00     9.0517879     0.5029383
         10    7.4926650E+01  4.3523505E+00  1.1000000E+01  5.2159086E+00  1.0479568E+02  0.0000000E+00     9.7404645     0.5658056

         11    8.0224162E+01  4.8359450E+00  1.1000000E+01  5.2159086E+00  1.0479568E+02  0.0000000E+00    10.4291411     0.6286728
         12    8.5521674E+01  5.3195395E+00  1.1000000E+01  5.2159086E+00  1.0479568E+02  0.0000000E+00    11.1178177     0.6915401
         13    9.0819187E+01  5.8031339E+00  1.1000000E+01  5.2159086E+00  1.0479568E+02  0.0000000E+00    11.8064942     0.7544074
         14    9.6116699E+01  6.2867284E+00  1.1000000E+01  5.2159086E+00  1.0479568E+02  0.0000000E+00    12.4951708     0.8172747
