           Mach 12    THROAT VELOCITY DISTRIBUTION, X=O, RC=  6.000000

          DERIVATIVES TAKEN WITH RESPECT TO X/Y*, WOP= 0.34136118

          WOPP=  2.8328436E-03     WOPPP= -7.6881686E-02

          Y/YO       U/A*          V/A*           W           MACH NO.

         0.0000    0.96385164   -0.00000000    0.96385164    0.95708127
         0.0227    0.96388554   -0.00032612    0.96388560    0.95712116
         0.0455    0.96398728   -0.00065147    0.96398750    0.95724089
         0.0682    0.96415691   -0.00097528    0.96415741    0.95744054
         0.0909    0.96439457   -0.00129676    0.96439544    0.95772027
         0.1136    0.96470042   -0.00161515    0.96470177    0.95808032
         0.1364    0.96507468   -0.00192964    0.96507661    0.95852097
         0.1591    0.96551762   -0.00223945    0.96552022    0.95904259
         0.1818    0.96602956   -0.00254375    0.96603291    0.95964562
         0.2045    0.96661088   -0.00284175    0.96661506    0.96033054

         0.2273    0.96726200   -0.00313259    0.96726707    0.96109794
         0.2500    0.96798341   -0.00341543    0.96798943    0.96194847
         0.2727    0.96877564   -0.00368939    0.96878266    0.96288284
         0.2955    0.96963929   -0.00395358    0.96964735    0.96390188
         0.3182    0.97057503   -0.00420707    0.97058415    0.96500647
         0.3409    0.97158358   -0.00444893    0.97159376    0.96619759
         0.3636    0.97266573   -0.00467817    0.97267698    0.96747630
         0.3864    0.97382233   -0.00489378    0.97383463    0.96884378
         0.4091    0.97505433   -0.00509470    0.97506764    0.97030128
         0.4318    0.97636271   -0.00527983    0.97637699    0.97185016

         0.4545    0.97774858   -0.00544804    0.97776376    0.97349191
         0.4773    0.97921309   -0.00559813    0.97922909    0.97522810
         0.5000    0.98075749   -0.00572885    0.98077422    0.97706044
         0.5227    0.98238312   -0.00583887    0.98240047    0.97899077
         0.5455    0.98409140   -0.00592683    0.98410925    0.98102105
         0.5682    0.98588388   -0.00599125    0.98590208    0.98315338
         0.5909    0.98776216   -0.00603061    0.98778057    0.98539001
         0.6136    0.98972800   -0.00604329    0.98974645    0.98773333
         0.6364    0.99178323   -0.00602755    0.99180154    0.99018592
         0.6591    0.99392981   -0.00598159    0.99394780    0.99275050

         0.6818    0.99616981   -0.00590345    0.99618731    0.99542999
         0.7045    0.99850546   -0.00579111    0.99852225    0.99822749
         0.7273    1.00093907   -0.00564236    1.00095497    1.00114630
         0.7500    1.00347313   -0.00545488    1.00348795    1.00418993
         0.7727    1.00611024   -0.00522622    1.00612381    1.00736213
         0.7955    1.00885316   -0.00495373    1.00886533    1.01066685
         0.8182    1.01170483   -0.00463462    1.01171544    1.01410833
         0.8409    1.01466830   -0.00426590    1.01467727    1.01769104
         0.8636    1.01774683   -0.00384438    1.01775409    1.02141974
         0.8864    1.02094383   -0.00336667    1.02094938    1.02529949

         0.9091    1.02426291   -0.00282915    1.02426681    1.02933565
         0.9318    1.02770784   -0.00222797    1.02771026    1.03353393
         0.9545    1.03128262   -0.00155902    1.03128380    1.03790036
         0.9773    1.03499143   -0.00081792    1.03499175    1.04244138
         1.0000    1.03883866   -0.00000000    1.03883866    1.04716380
          FROM CUBIC, X/Y* = 0.10589173 FOR W= 1.0

                      X/Y* = 0.30916405 FOR W= 1.06914498

          CORRECTED WOPPP= -7.5033231E-02

          RMASS = Y*/YO = 0.9997135747


          AXIAL VELOCITY DISTRIBUTION, Y=0

          X/Y*         W                 WP                WPP               M                 MP                MPP

         0.000     9.6385164E-01     3.4136118E-01     2.8328436E-03     9.5708127E-01     4.0106175E-01     8.1394664E-02
         0.100     9.9798942E-01     3.4126930E-01    -4.6704794E-03     9.9758876E-01     4.0903012E-01     7.7920331E-02
         0.200     1.0320805E+00     3.4042708E-01    -1.2173802E-02     1.0388752E+00     4.1663401E-01     7.4091422E-02
         0.300     1.0660498E+00     3.3883454E-01    -1.9677126E-02     1.0809021E+00     4.2383370E-01     6.9820989E-02
       0.30913716  1.0691450E+00     3.3865161E-01    -2.0362716E-02     1.0847776E+00     4.2446977E-01     6.9405507E-02
         0.400     1.0998224E+00     3.3649166E-01    -2.7180449E-02     1.1236268E+00     4.3058029E-01     6.5012734E-02
         0.500     1.1333231E+00     3.3339845E-01    -3.4683772E-02     1.1670011E+00     4.3681479E-01     5.9560535E-02
         0.600     1.1664771E+00     3.2955490E-01    -4.2187095E-02     1.2109704E+00     4.4246707E-01     5.3348148E-02
         0.700     1.1992091E+00     3.2496103E-01    -4.9690418E-02     1.2554724E+00     4.4745488E-01     4.6249172E-02
         0.800     1.2314443E+00     3.1961682E-01    -5.7193741E-02     1.3004360E+00     4.5168282E-01     3.8127370E-02
         0.900     1.2631075E+00     3.1352228E-01    -6.4697064E-02     1.3457800E+00     4.5504143E-01     2.8837498E-02
         1.000     1.2941237E+00     3.0667741E-01    -7.2200387E-02     1.3914112E+00     4.5740630E-01     1.8226785E-02
1  Mach 12    INVISCID CONTOUR, 4TH-DEGAXIAL MACH NUMBER DISTRIBUTION FROM THROAT CHARACTERISTIC WHICH HAS  45 POINTS

     NO. OF POINTS ON 1ST CHAR. (M)= 61     NO. OF POINTS ON AXIS (N)= 41     EPSI/ETA= 0.00000    BMACH= 12.00000    CMACH= 12.00000

     GAMMA= 1.4000     INFLECTION ANG. (ETA)= 60.0000  DEGREES     RAD. OF CURV. (RC)=   6.000000     SCALE FACTOR (SF)=   0.13000000

     Y*=1.00000000    RMASS=0.99971357    WWO= 1.0388387    WWOP= 0.39255278    EMACH=12.00000    FMACH=12.0000000    GMACH=  0.00000

          WI=  1.06914498    WIP=  0.33865161    WIPP= -2.0362716E-02    MI=  1.08477764    MIP=  0.42446977    MIPP=  6.9405507E-02

          C1=  1.0847776   C2= 12.22904767   C3=  2.8804191E+01   C4= -5.0634636E+01   C5=  2.0516619E+01   C6=  0.0000000E+00

          XOI=  0.10589746   XI=  0.30913716   XO=  0.00000000   YO=  1.00028651   XIE= 28.81017346   XE= 29.11931062    0 ITERATIONS

          MACH 0.95708127 AT  0.0000000 IN.,   MACH 1 AT  0.0137667 IN.,   MACH 1.08477764 AT  0.0401878 IN.

  AXIS
 POINT    X       X(IN)   MACH NO.    DM/DX        D2M/DX2       D3M/DX3       W=Q/A*     DW/DX        D2W/DX2       D3W/DX3

   1  29.11931   3.78551 12.000000 -4.932582E-16 -5.136292E-17  7.886485E-03  2.408040 -3.321548E-18 -3.458724E-19  5.310675E-05
   2  27.83584   3.61866 11.997302  6.243850E-03 -9.533402E-03  6.969167E-03  2.408022  4.207284E-05 -6.430227E-05  4.725115E-05
   3  26.57843   3.45520 11.979679  2.350384E-02 -1.773149E-02  6.070476E-03  2.407903  1.590519E-04 -1.208948E-04  4.313351E-05
   4  25.34722   3.29514 11.935482  4.971385E-02 -2.466383E-02  5.190508E-03  2.407602  3.400404E-04 -1.728044E-04  4.167791E-05
   5  24.14234   3.13850 11.856230  8.298996E-02 -3.039896E-02  4.329363E-03  2.407055  5.787120E-04 -2.237154E-04  4.339980E-05
   6  22.96394   2.98531 11.736205  1.216229E-01 -3.500443E-02  3.487145E-03  2.406206  8.734726E-04 -2.775994E-04  4.870834E-05
   7  21.81218   2.83558 11.572071  1.640707E-01 -3.854674E-02  2.663962E-03  2.405003  1.227335E-03 -3.386749E-04  5.812355E-05
   8  20.68720   2.68934 11.362519  2.089510E-01 -4.109137E-02  1.859922E-03  2.403393  1.647835E-03 -4.115750E-04  7.243885E-05
   9  19.58917   2.54659 11.107946  2.550341E-01 -4.270277E-02  1.075142E-03  2.401318  2.147163E-03 -5.016541E-04  9.286638E-05
  10  18.51826   2.40737 10.810158  3.012355E-01 -4.344431E-02  3.097407E-04  2.398711  2.742601E-03 -6.154074E-04  1.211990E-04

  11  17.47462   2.27170 10.472097  3.466086E-01 -4.337835E-02 -4.361595E-04  2.395489  3.457321E-03 -7.610115E-04  1.600185E-04
  12  16.45846   2.13960 10.097597  3.903380E-01 -4.256613E-02 -1.162430E-03  2.391553  4.321609E-03 -9.490164E-04  2.129801E-04
  13  15.46995   2.01109  9.691161  4.317322E-01 -4.106786E-02 -1.868936E-03  2.386780  5.374563E-03 -1.193235E-03  2.852023E-04
  14  14.50928   1.88621  9.257761  4.702167E-01 -3.894263E-02 -2.555540E-03  2.381021  6.666359E-03 -1.511890E-03  3.837968E-04
  15  13.57666   1.76497  8.802662  5.053273E-01 -3.624848E-02 -3.222096E-03  2.374090  8.261164E-03 -1.929082E-03  5.185713E-04
  16  12.67231   1.64740  8.331262  5.367030E-01 -3.304230E-02 -3.868452E-03  2.365762  1.024079E-02 -2.476634E-03  7.029268E-04
  17  11.79644   1.53354  7.848957  5.640798E-01 -2.937990E-02 -4.494449E-03  2.355757  1.270910E-02 -3.196345E-03  9.549382E-04
  18  10.94929   1.42341  7.361027  5.872838E-01 -2.531597E-02 -5.099919E-03  2.343739  1.579717E-02 -4.142571E-03  1.298524E-03
  19  10.13111   1.31704  6.872526  6.062246E-01 -2.090408E-02 -5.684688E-03  2.329299  1.966885E-02 -5.384932E-03  1.764448E-03
  20   9.34215   1.21448  6.388210  6.208894E-01 -1.619665E-02 -6.248570E-03  2.311949  2.452621E-02 -7.010568E-03  2.390596E-03

  21   8.58269   1.11575  5.912463  6.313359E-01 -1.124497E-02 -6.791371E-03  2.291113  3.061352E-02 -9.124893E-03  3.220480E-03
  22   7.85301   1.02089  5.449246  6.376869E-01 -6.099201E-03 -7.312882E-03  2.266121  3.821785E-02 -1.184901E-02  4.298212E-03
  23   7.15343   0.92995  5.002063  6.401235E-01 -8.083348E-04 -7.812886E-03  2.236222  4.766280E-02 -1.531103E-02  5.657472E-03
  24   6.48426   0.84295  4.573932  6.388794E-01  4.579770E-03 -8.291146E-03  2.200598  5.929125E-02 -1.962760E-02  7.301560E-03
  25   5.84587   0.75996  4.167375  6.342353E-01  1.001840E-02 -8.747415E-03  2.158411  7.343179E-02 -2.487224E-02  9.172783E-03
  26   5.23863   0.68102  3.784416  6.265122E-01  1.546200E-02 -9.181422E-03  2.108874  9.034488E-02 -3.102905E-02  1.111351E-02
  27   4.66294   0.60618  3.426595  6.160666E-01  2.086612E-02 -9.592880E-03  2.051354  1.101488E-01 -3.793660E-02  1.282971E-02
  28   4.11923   0.53550  3.094982  6.032846E-01  2.618743E-02 -9.981473E-03  1.985506  1.327334E-01 -4.523672E-02  1.387930E-02
  29   3.60800   0.46904  2.790208  5.885764E-01  3.138370E-02 -1.034686E-02  1.911426  1.576827E-01 -5.235457E-02  1.371506E-02
  30   3.12976   0.40687  2.512506  5.723712E-01  3.641373E-02 -1.068867E-02  1.829784  1.842361E-01 -5.854020E-02  1.180207E-02

  31   2.68509   0.34906  2.261749  5.551120E-01  4.123729E-02 -1.100648E-02  1.741912  2.113220E-01 -6.298868E-02  7.794008E-03
  32   2.27464   0.29570  2.037506  5.372509E-01  4.581507E-02 -1.129983E-02  1.649795  2.376781E-01 -6.502144E-02  1.701852E-03
  33   1.89915   0.24689  1.839101  5.192446E-01  5.010850E-02 -1.156820E-02  1.555965  2.620435E-01 -6.427114E-02 -6.037299E-03
  34   1.55944   0.20273  1.665676  5.015501E-01  5.407957E-02 -1.181100E-02  1.463290  2.833696E-01 -6.079563E-02 -1.464792E-02
  35   1.25649   0.16334  1.516267  4.846213E-01  5.769052E-02 -1.202752E-02  1.374731  3.009866E-01 -5.507305E-02 -2.323077E-02
  36   0.99145   0.12889  1.389889  4.689066E-01  6.090335E-02 -1.221695E-02  1.293103  3.146761E-01 -4.788637E-02 -3.100227E-02
  37   0.76575   0.09955  1.285630  4.548480E-01  6.367896E-02 -1.237826E-02  1.220922  3.246391E-01 -4.015493E-02 -3.745318E-02
  38   0.58119   0.07555  1.202783  4.428841E-01  6.597561E-02 -1.251017E-02  1.160365  3.313835E-01 -3.278165E-02 -4.238114E-02
  39   0.44026   0.05723  1.141029  4.334617E-01  6.774574E-02 -1.261089E-02  1.113358  3.355709E-01 -2.656293E-02 -4.581836E-02
  40   0.34679   0.04508  1.100811  4.270743E-01  6.892761E-02 -1.267770E-02  1.081882  3.378505E-01 -2.218153E-02 -4.790270E-02

  41   0.30914   0.04019  1.084778  4.244698E-01  6.940551E-02 -1.270461E-02  1.069145  3.386516E-01 -2.036272E-02 -4.869297E-02
   Mach 12    THROAT CHARACTERISTIC
             
        POINT        X              Y          MACH NO.      MACH ANG.(D)     PSI (D)     FLOW ANG.(D)        X(IN)         Y(IN)

          1    3.0913716E-01  0.0000000E+00  1.0847776E+00  6.7197746E+01  1.0529038E+00  0.0000000E+00     0.0401878     0.0000000
          2    2.9968938E-01  2.2733784E-02  1.0808196E+00  6.7702118E+01  9.8245330E-01  3.4811254E-02     0.0389596     0.0029554
          3    2.9045753E-01  4.5467569E-02  1.0770581E+00  6.8195247E+01  9.1681691E-01  6.6427763E-02     0.0377595     0.0059108
          4    2.8143631E-01  6.8201353E-02  1.0734886E+00  6.8676517E+01  8.5576299E-01  9.5024047E-02     0.0365867     0.0088662
          5    2.7262016E-01  9.0935137E-02  1.0701068E+00  6.9145286E+01  7.9906689E-01  1.2076881E-01     0.0354406     0.0118216
          6    2.6400330E-01  1.1366892E-01  1.0669086E+00  6.9600893E+01  7.4651091E-01  1.4382499E-01     0.0343204     0.0147770
          7    2.5557964E-01  1.3640271E-01  1.0638898E+00  7.0042658E+01  6.9788437E-01  1.6434976E-01     0.0332254     0.0177324
          8    2.4734286E-01  1.5913649E-01  1.0610463E+00  7.0469885E+01  6.5298359E-01  1.8249452E-01     0.0321546     0.0206877
          9    2.3928637E-01  1.8187027E-01  1.0583743E+00  7.0881870E+01  6.1161200E-01  1.9840486E-01     0.0311072     0.0236431
         10    2.3140329E-01  2.0460406E-01  1.0558697E+00  7.1277900E+01  5.7358019E-01  2.1222051E-01     0.0300824     0.0265985

         11    2.2368649E-01  2.2733784E-01  1.0535288E+00  7.1657260E+01  5.3870607E-01  2.2407524E-01     0.0290792     0.0295539
         12    2.1612856E-01  2.5007163E-01  1.0513475E+00  7.2019244E+01  5.0681496E-01  2.3409680E-01     0.0280967     0.0325093
         13    2.0872186E-01  2.7280541E-01  1.0493223E+00  7.2363158E+01  4.7773972E-01  2.4240679E-01     0.0271338     0.0354647
         14    2.0145844E-01  2.9553920E-01  1.0474492E+00  7.2688328E+01  4.5132091E-01  2.4912055E-01     0.0261896     0.0384201
         15    1.9433017E-01  3.1827298E-01  1.0457246E+00  7.2994111E+01  4.2740693E-01  2.5434708E-01     0.0252629     0.0413755
         16    1.8732865E-01  3.4100676E-01  1.0441447E+00  7.3279902E+01  4.0585415E-01  2.5818887E-01     0.0243527     0.0443309
         17    1.8044527E-01  3.6374055E-01  1.0427059E+00  7.3545146E+01  3.8652703E-01  2.6074190E-01     0.0234579     0.0472863
         18    1.7367127E-01  3.8647433E-01  1.0414044E+00  7.3789343E+01  3.6929826E-01  2.6209546E-01     0.0225773     0.0502417
         19    1.6699767E-01  4.0920812E-01  1.0402367E+00  7.4012062E+01  3.5404880E-01  2.6233217E-01     0.0217097     0.0531971
         20    1.6041539E-01  4.3194190E-01  1.0391991E+00  7.4212946E+01  3.4066795E-01  2.6152787E-01     0.0208540     0.0561524

         21    1.5391523E-01  4.5467569E-01  1.0382882E+00  7.4391723E+01  3.2905341E-01  2.5975170E-01     0.0200090     0.0591078
         22    1.4748792E-01  4.7740947E-01  1.0375005E+00  7.4548207E+01  3.1911120E-01  2.5706604E-01     0.0191734     0.0620632
         23    1.4112417E-01  5.0014325E-01  1.0368326E+00  7.4682307E+01  3.1075568E-01  2.5352664E-01     0.0183461     0.0650186
         24    1.3481466E-01  5.2287704E-01  1.0362811E+00  7.4794027E+01  3.0390939E-01  2.4918267E-01     0.0175259     0.0679740
         25    1.2855012E-01  5.4561082E-01  1.0358428E+00  7.4883468E+01  2.9850296E-01  2.4407688E-01     0.0167115     0.0709294
         26    1.2232136E-01  5.6834461E-01  1.0355147E+00  7.4950826E+01  2.9447491E-01  2.3824575E-01     0.0159018     0.0738848
         27    1.1611931E-01  5.9107839E-01  1.0352937E+00  7.4996385E+01  2.9177149E-01  2.3171969E-01     0.0150955     0.0768402
         28    1.0993502E-01  6.1381217E-01  1.0351769E+00  7.5020517E+01  2.9034637E-01  2.2452324E-01     0.0142916     0.0797956
         29    1.0375973E-01  6.3654596E-01  1.0351617E+00  7.5023671E+01  2.9016044E-01  2.1667534E-01     0.0134888     0.0827510
         30    9.7584884E-02  6.5927974E-01  1.0352454E+00  7.5006365E+01  2.9118151E-01  2.0818956E-01     0.0126860     0.0857064

         31    9.1402159E-02  6.8201353E-01  1.0354256E+00  7.4969175E+01  2.9338401E-01  1.9907434E-01     0.0118823     0.0886618
         32    8.5203476E-02  7.0474731E-01  1.0357001E+00  7.4912727E+01  2.9674869E-01  1.8933332E-01     0.0110765     0.0916172
         33    7.8981021E-02  7.2748110E-01  1.0360668E+00  7.4837682E+01  3.0126232E-01  1.7896553E-01     0.0102675     0.0945725
         34    7.2727262E-02  7.5021488E-01  1.0365238E+00  7.4744732E+01  3.0691743E-01  1.6796567E-01     0.0094545     0.0975279
         35    6.6434949E-02  7.7294866E-01  1.0370695E+00  7.4634583E+01  3.1371200E-01  1.5632434E-01     0.0086365     0.1004833
         36    6.0097126E-02  7.9568245E-01  1.0377023E+00  7.4507948E+01  3.2164920E-01  1.4402826E-01     0.0078126     0.1034387
         37    5.3707124E-02  8.1841623E-01  1.0384209E+00  7.4365542E+01  3.3073716E-01  1.3106048E-01     0.0069819     0.1063941
         38    4.7258563E-02  8.4115002E-01  1.0392241E+00  7.4208067E+01  3.4098878E-01  1.1740052E-01     0.0061436     0.1093495
         39    4.0745346E-02  8.6388380E-01  1.0401111E+00  7.4036213E+01  3.5242148E-01  1.0302455E-01     0.0052969     0.1123049
         40    3.4161648E-02  8.8661759E-01  1.0410811E+00  7.3850645E+01  3.6505709E-01  8.7905506E-02     0.0044410     0.1152603

         41    2.7501911E-02  9.0935137E-01  1.0421336E+00  7.3652006E+01  3.7892168E-01  7.2013171E-02     0.0035752     0.1182157
         42    2.0760830E-02  9.3208515E-01  1.0432682E+00  7.3440909E+01  3.9404549E-01  5.5314267E-02     0.0026989     0.1211711
         43    1.3933340E-02  9.5481894E-01  1.0444847E+00  7.3217934E+01  4.1046283E-01  3.7772484E-02     0.0018113     0.1241265
         44    7.0146040E-03  9.7755272E-01  1.0457832E+00  7.2983628E+01  4.2821204E-01  1.9348505E-02     0.0009119     0.1270819
         45    0.0000000E+00  1.0002865E+00  1.0471638E+00  7.2738506E+01  4.4733546E-01  0.0000000E+00     0.0000000     0.1300372
1  Mach 12    INVISCID CONTOUR

  CHARACT   1
        POINT        X              Y          MACH NO.     MACH ANG.(D)      PSI (D)      FLOW ANG.(D)       X(IN)         Y(IN)

          1    2.9119311E+01  0.0000000E+00  1.2000000E+01  4.7801918E+00  1.0687863E+02  0.0000000E+00     3.7855104     0.0000000
          2    3.6239289E+01  5.9540250E-01  1.2000000E+01  4.7801918E+00  1.0687863E+02  0.0000000E+00     4.7111076     0.0774023
          3    4.3359267E+01  1.1908050E+00  1.2000000E+01  4.7801918E+00  1.0687863E+02  0.0000000E+00     5.6367047     0.1548046
          4    5.0479246E+01  1.7862075E+00  1.2000000E+01  4.7801918E+00  1.0687863E+02  0.0000000E+00     6.5623019     0.2322070
          5    5.7599224E+01  2.3816100E+00  1.2000000E+01  4.7801918E+00  1.0687863E+02  0.0000000E+00     7.4878991     0.3096093
          6    6.4719202E+01  2.9770125E+00  1.2000000E+01  4.7801918E+00  1.0687863E+02  0.0000000E+00     8.4134963     0.3870116
          7    7.1839181E+01  3.5724150E+00  1.2000000E+01  4.7801918E+00  1.0687863E+02  0.0000000E+00     9.3390935     0.4644139
          8    7.8959159E+01  4.1678175E+00  1.2000000E+01  4.7801918E+00  1.0687863E+02  0.0000000E+00    10.2646907     0.5418163
          9    8.6079137E+01  4.7632200E+00  1.2000000E+01  4.7801918E+00  1.0687863E+02  0.0000000E+00    11.1902879     0.6192186
         10    9.3199116E+01  5.3586225E+00  1.2000000E+01  4.7801918E+00  1.0687863E+02  0.0000000E+00    12.1158850     0.6966209

         11    1.0031909E+02  5.9540250E+00  1.2000000E+01  4.7801918E+00  1.0687863E+02  0.0000000E+00    13.0414822     0.7740232
         12    1.0743907E+02  6.5494275E+00  1.2000000E+01  4.7801918E+00  1.0687863E+02  0.0000000E+00    13.9670794     0.8514256
         13    1.1455905E+02  7.1448300E+00  1.2000000E+01  4.7801918E+00  1.0687863E+02  0.0000000E+00    14.8926766     0.9288279
         14    1.2167903E+02  7.7402325E+00  1.2000000E+01  4.7801918E+00  1.0687863E+02  0.0000000E+00    15.8182738     1.0062302
