           Mach 20    THROAT VELOCITY DISTRIBUTION, X=O, RC=  6.000000

          DERIVATIVES TAKEN WITH RESPECT TO X/Y*, WOP= 0.34136118

          WOPP=  2.8328436E-03     WOPPP= -7.6881686E-02

          Y/YO       U/A*          V/A*           W           MACH NO.

         0.0000    0.96385164   -0.00000000    0.96385164    0.95708127
         0.0227    0.96388554   -0.00032612    0.96388560    0.95712116
         0.0455    0.96398728   -0.00065147    0.96398750    0.95724089
         0.0682    0.96415691   -0.00097528    0.96415741    0.95744054
         0.0909    0.96439457   -0.00129676    0.96439544    0.95772027
         0.1136    0.96470042   -0.00161515    0.96470177    0.95808032
         0.1364    0.96507468   -0.00192964    0.96507661    0.95852097
         0.1591    0.96551762   -0.00223945    0.96552022    0.95904259
         0.1818    0.96602956   -0.00254375    0.96603291    0.95964562
         0.2045    0.96661088   -0.00284175    0.96661506    0.96033054

         0.2273    0.96726200   -0.00313259    0.96726707    0.96109794
         0.2500    0.96798341   -0.00341543    0.96798943    0.96194847
         0.2727    0.96877564   -0.00368939    0.96878266    0.96288284
         0.2955    0.96963929   -0.00395358    0.96964735    0.96390188
         0.3182    0.97057503   -0.00420707    0.97058415    0.96500647
         0.3409    0.97158358   -0.00444893    0.97159376    0.96619759
         0.3636    0.97266573   -0.00467817    0.97267698    0.96747630
         0.3864    0.97382233   -0.00489378    0.97383463    0.96884378
         0.4091    0.97505433   -0.00509470    0.97506764    0.97030128
         0.4318    0.97636271   -0.00527983    0.97637699    0.97185016

         0.4545    0.97774858   -0.00544804    0.97776376    0.97349191
         0.4773    0.97921309   -0.00559813    0.97922909    0.97522810
         0.5000    0.98075749   -0.00572885    0.98077422    0.97706044
         0.5227    0.98238312   -0.00583887    0.98240047    0.97899077
         0.5455    0.98409140   -0.00592683    0.98410925    0.98102105
         0.5682    0.98588388   -0.00599125    0.98590208    0.98315338
         0.5909    0.98776216   -0.00603061    0.98778057    0.98539001
         0.6136    0.98972800   -0.00604329    0.98974645    0.98773333
         0.6364    0.99178323   -0.00602755    0.99180154    0.99018592
         0.6591    0.99392981   -0.00598159    0.99394780    0.99275050

         0.6818    0.99616981   -0.00590345    0.99618731    0.99542999
         0.7045    0.99850546   -0.00579111    0.99852225    0.99822749
         0.7273    1.00093907   -0.00564236    1.00095497    1.00114630
         0.7500    1.00347313   -0.00545488    1.00348795    1.00418993
         0.7727    1.00611024   -0.00522622    1.00612381    1.00736213
         0.7955    1.00885316   -0.00495373    1.00886533    1.01066685
         0.8182    1.01170483   -0.00463462    1.01171544    1.01410833
         0.8409    1.01466830   -0.00426590    1.01467727    1.01769104
         0.8636    1.01774683   -0.00384438    1.01775409    1.02141974
         0.8864    1.02094383   -0.00336667    1.02094938    1.02529949

         0.9091    1.02426291   -0.00282915    1.02426681    1.02933565
         0.9318    1.02770784   -0.00222797    1.02771026    1.03353393
         0.9545    1.03128262   -0.00155902    1.03128380    1.03790036
         0.9773    1.03499143   -0.00081792    1.03499175    1.04244138
         1.0000    1.03883866   -0.00000000    1.03883866    1.04716380
          FROM CUBIC, X/Y* = 0.10589173 FOR W= 1.0

                      X/Y* = 0.30916405 FOR W= 1.06914498

          CORRECTED WOPPP= -7.5033231E-02

          RMASS = Y*/YO = 0.9997135747


          AXIAL VELOCITY DISTRIBUTION, Y=0

          X/Y*         W                 WP                WPP               M                 MP                MPP

         0.000     9.6385164E-01     3.4136118E-01     2.8328436E-03     9.5708127E-01     4.0106175E-01     8.1394664E-02
         0.100     9.9798942E-01     3.4126930E-01    -4.6704794E-03     9.9758876E-01     4.0903012E-01     7.7920331E-02
         0.200     1.0320805E+00     3.4042708E-01    -1.2173802E-02     1.0388752E+00     4.1663401E-01     7.4091422E-02
         0.300     1.0660498E+00     3.3883454E-01    -1.9677126E-02     1.0809021E+00     4.2383370E-01     6.9820989E-02
       0.30913716  1.0691450E+00     3.3865161E-01    -2.0362716E-02     1.0847776E+00     4.2446977E-01     6.9405507E-02
         0.400     1.0998224E+00     3.3649166E-01    -2.7180449E-02     1.1236268E+00     4.3058029E-01     6.5012734E-02
         0.500     1.1333231E+00     3.3339845E-01    -3.4683772E-02     1.1670011E+00     4.3681479E-01     5.9560535E-02
         0.600     1.1664771E+00     3.2955490E-01    -4.2187095E-02     1.2109704E+00     4.4246707E-01     5.3348148E-02
         0.700     1.1992091E+00     3.2496103E-01    -4.9690418E-02     1.2554724E+00     4.4745488E-01     4.6249172E-02
         0.800     1.2314443E+00     3.1961682E-01    -5.7193741E-02     1.3004360E+00     4.5168282E-01     3.8127370E-02
         0.900     1.2631075E+00     3.1352228E-01    -6.4697064E-02     1.3457800E+00     4.5504143E-01     2.8837498E-02
         1.000     1.2941237E+00     3.0667741E-01    -7.2200387E-02     1.3914112E+00     4.5740630E-01     1.8226785E-02
1  Mach 20    INVISCID CONTOUR, 4TH-DEGAXIAL MACH NUMBER DISTRIBUTION FROM THROAT CHARACTERISTIC WHICH HAS  45 POINTS

     NO. OF POINTS ON 1ST CHAR. (M)= 61     NO. OF POINTS ON AXIS (N)= 41     EPSI/ETA= 0.00000    BMACH= 20.00000    CMACH= 20.00000

     GAMMA= 1.4000     INFLECTION ANG. (ETA)= 60.0000  DEGREES     RAD. OF CURV. (RC)=   6.000000     SCALE FACTOR (SF)=   0.13000000

     Y*=1.00000000    RMASS=0.99971357    WWO= 1.0388387    WWOP= 0.39255278    EMACH=20.00000    FMACH=20.0000000    GMACH=  0.00000

          WI=  1.06914498    WIP=  0.33865161    WIPP= -2.0362716E-02    MI=  1.08477764    MIP=  0.42446977    MIPP=  6.9405507E-02

          C1=  1.0847776   C2= 17.70506327   C3=  6.0376144E+01   C4= -9.8206589E+01   C5=  3.9040604E+01   C6=  0.0000000E+00

          XOI=  0.10589746   XI=  0.30913716   XO=  0.00000000   YO=  1.00028651   XIE= 41.71101118   XE= 42.02014835    0 ITERATIONS

          MACH 0.95708127 AT  0.0000000 IN.,   MACH 1 AT  0.0137667 IN.,   MACH 1.08477764 AT  0.0401878 IN.

  AXIS
 POINT    X       X(IN)   MACH NO.    DM/DX        D2M/DX2       D3M/DX3       W=Q/A*     DW/DX        D2W/DX2       D3W/DX3

   1  42.02015   5.46262 20.000000  8.517448E-17  2.450417E-17  4.791773E-03  2.434322  1.279890E-19  3.682164E-20  7.200444E-06
   2  40.16195   5.22105 19.995030  7.941706E-03 -8.369630E-03  4.216576E-03  2.434315  1.194254E-05 -1.260010E-05  6.385240E-06
   3  38.34149   4.98439 19.962605  2.985410E-02 -1.553282E-02  3.653060E-03  2.434266  4.511025E-05 -2.367034E-05  5.833024E-06
   4  36.55896   4.75266 19.881394  6.305338E-02 -2.155275E-02  3.101283E-03  2.434143  9.643279E-05 -3.386846E-05  5.683469E-06
   5  34.81455   4.52589 19.735987  1.050948E-01 -2.649168E-02  2.561310E-03  2.433918  1.642635E-04 -4.399746E-05  6.016921E-06
   6  33.10849   4.30410 19.516124  1.537627E-01 -3.041095E-02  2.033205E-03  2.433568  2.484389E-04 -5.493196E-05  6.903833E-06
   7  31.44098   4.08733 19.215971  2.070607E-01 -3.337098E-02  1.517035E-03  2.433072  3.502632E-04 -6.762168E-05  8.441028E-06
   8  29.81225   3.87559 18.833462  2.632022E-01 -3.543124E-02  1.012869E-03  2.432406  4.725261E-04 -8.314521E-05  1.078091E-05
   9  28.22253   3.66893 18.369679  3.206004E-01 -3.665027E-02  5.207793E-04  2.431542  6.196169E-04 -1.028014E-04  1.416110E-05
  10  26.67207   3.46737 17.828299  3.778588E-01 -3.708565E-02  4.084073E-05  2.430448  7.977698E-04 -1.282376E-04  1.894203E-05

  11  25.16112   3.27095 17.215081  4.337623E-01 -3.679402E-02 -4.268695E-04  2.429084  1.015479E-03 -1.616248E-04  2.566038E-05
  12  23.68992   3.07969 16.537402  4.872672E-01 -3.583102E-02 -8.822710E-04  2.427401  1.284129E-03 -2.058988E-04  3.510871E-05
  13  22.25877   2.89364 15.803836  5.374922E-01 -3.425134E-02 -1.325280E-03  2.425334  1.618892E-03 -2.650977E-04  4.845526E-05
  14  20.86793   2.71283 15.023784  5.837098E-01 -3.210869E-02 -1.755809E-03  2.422802  2.040006E-03 -3.448408E-04  6.742485E-05
  15  19.51770   2.53730 14.207135  6.253364E-01 -2.945577E-02 -2.173767E-03  2.419703  2.574537E-03 -4.530126E-04  9.457201E-05
  16  18.20838   2.36709 13.363978  6.619241E-01 -2.634431E-02 -2.579059E-03  2.415905  3.258812E-03 -6.007434E-04  1.336919E-04
  17  16.94031   2.20224 12.504341  6.931518E-01 -2.282501E-02 -2.971585E-03  2.411240  4.141770E-03 -8.038137E-04  1.904355E-04
  18  15.71382   2.04280 11.637972  7.188162E-01 -1.894756E-02 -3.351240E-03  2.405491  5.289519E-03 -1.084652E-03  2.732193E-04
  19  14.52927   1.88880 10.774155  7.388237E-01 -1.476066E-02 -3.717914E-03  2.398382  6.791487E-03 -1.475142E-03  3.945471E-04
  20  13.38702   1.74031  9.921552  7.531817E-01 -1.031195E-02 -4.071491E-03  2.389554  8.768601E-03 -2.020493E-03  5.728661E-04

  21  12.28748   1.59737  9.088085  7.619904E-01 -5.648060E-03 -4.411850E-03  2.378552  1.138384E-02 -2.784363E-03  8.350366E-04
  22  11.23106   1.46004  8.280837  7.654344E-01 -8.145789E-04 -4.738859E-03  2.364791  1.485533E-02 -3.855283E-03  1.219290E-03
  23  10.21822   1.32837  7.505985  7.637751E-01  4.143939E-03 -5.052382E-03  2.347535  1.947141E-02 -5.353813E-03  1.778038E-03
  24   9.24941   1.20242  6.768758  7.573425E-01  9.183977E-03 -5.352271E-03  2.325862  2.560567E-02 -7.438703E-03  2.578740E-03
  25   8.32516   1.08227  6.073417  7.465274E-01  1.426305E-02 -5.638370E-03  2.298647  3.372733E-02 -1.030800E-02  3.698944E-03
  26   7.44599   0.96798  5.423257  7.317738E-01  1.933972E-02 -5.910511E-03  2.264554  4.439795E-02 -1.418746E-02  5.208417E-03
  27   6.61251   0.85963  4.820632  7.135716E-01  2.437354E-02 -6.168512E-03  2.222076  5.823995E-02 -1.929415E-02  7.128326E-03
  28   5.82535   0.75730  4.266990  6.924493E-01  2.932508E-02 -6.412176E-03  2.169631  7.585765E-02 -2.576138E-02  9.358911E-03
  29   5.08519   0.66107  3.762938  6.689668E-01  3.415590E-02 -6.641289E-03  2.105757  9.769383E-02 -3.351823E-02  1.158200E-02
  30   4.39280   0.57106  3.308309  6.437085E-01  3.882847E-02 -6.855615E-03  2.029414  1.238232E-01 -4.214410E-02  1.318129E-02

  31   3.74901   0.48737  2.902253  6.172769E-01  4.330615E-02 -7.054896E-03  1.940372  1.537262E-01 -5.076569E-02  1.327123E-02
  32   3.15477   0.41012  2.543336  5.902862E-01  4.755311E-02 -7.238841E-03  1.839607  1.861422E-01 -5.810555E-02  1.093084E-02
  33   2.61113   0.33945  2.229656  5.633565E-01  5.153417E-02 -7.407122E-03  1.729562  2.191275E-01 -6.276523E-02  5.627869E-03
  34   2.11931   0.27551  1.958962  5.371085E-01  5.521463E-02 -7.559365E-03  1.614121  2.503866E-01 -6.369159E-02 -2.387447E-03
  35   1.68070   0.21849  1.728800  5.121594E-01  5.856001E-02 -7.695134E-03  1.498238  2.778003E-01 -6.060523E-02 -1.203469E-02
  36   1.29698   0.16861  1.536660  4.891196E-01  6.153554E-02 -7.813912E-03  1.387316  2.999348E-01 -5.413796E-02 -2.180762E-02
  37   0.97021   0.12613  1.380161  4.685927E-01  6.410542E-02 -7.915062E-03  1.286555  3.163080E-01 -4.560751E-02 -3.037259E-02
  38   0.70301   0.09139  1.257268  4.511803E-01  6.623135E-02 -7.997772E-03  1.200513  3.273297E-01 -3.659630E-02 -3.697339E-02
  39   0.49898   0.06487  1.166602  4.375000E-01  6.786961E-02 -8.060930E-03  1.133019  3.339948E-01 -2.858407E-02 -4.146609E-02
  40   0.36366   0.04728  1.108022  4.282416E-01  6.896330E-02 -8.102819E-03  1.087576  3.374750E-01 -2.279216E-02 -4.407897E-02

  41   0.30914   0.04019  1.084778  4.244698E-01  6.940551E-02 -8.119695E-03  1.069145  3.386516E-01 -2.036272E-02 -4.503502E-02
   Mach 20    THROAT CHARACTERISTIC
             
        POINT        X              Y          MACH NO.      MACH ANG.(D)     PSI (D)     FLOW ANG.(D)        X(IN)         Y(IN)

          1    3.0913716E-01  0.0000000E+00  1.0847776E+00  6.7197746E+01  1.0529038E+00  0.0000000E+00     0.0401878     0.0000000
          2    2.9968938E-01  2.2733784E-02  1.0808196E+00  6.7702118E+01  9.8245330E-01  3.4811254E-02     0.0389596     0.0029554
          3    2.9045753E-01  4.5467569E-02  1.0770581E+00  6.8195247E+01  9.1681691E-01  6.6427763E-02     0.0377595     0.0059108
          4    2.8143631E-01  6.8201353E-02  1.0734886E+00  6.8676517E+01  8.5576299E-01  9.5024047E-02     0.0365867     0.0088662
          5    2.7262016E-01  9.0935137E-02  1.0701068E+00  6.9145286E+01  7.9906689E-01  1.2076881E-01     0.0354406     0.0118216
          6    2.6400330E-01  1.1366892E-01  1.0669086E+00  6.9600893E+01  7.4651091E-01  1.4382499E-01     0.0343204     0.0147770
          7    2.5557964E-01  1.3640271E-01  1.0638898E+00  7.0042658E+01  6.9788437E-01  1.6434976E-01     0.0332254     0.0177324
          8    2.4734286E-01  1.5913649E-01  1.0610463E+00  7.0469885E+01  6.5298359E-01  1.8249452E-01     0.0321546     0.0206877
          9    2.3928637E-01  1.8187027E-01  1.0583743E+00  7.0881870E+01  6.1161200E-01  1.9840486E-01     0.0311072     0.0236431
         10    2.3140329E-01  2.0460406E-01  1.0558697E+00  7.1277900E+01  5.7358019E-01  2.1222051E-01     0.0300824     0.0265985

         11    2.2368649E-01  2.2733784E-01  1.0535288E+00  7.1657260E+01  5.3870607E-01  2.2407524E-01     0.0290792     0.0295539
         12    2.1612856E-01  2.5007163E-01  1.0513475E+00  7.2019244E+01  5.0681496E-01  2.3409680E-01     0.0280967     0.0325093
         13    2.0872186E-01  2.7280541E-01  1.0493223E+00  7.2363158E+01  4.7773972E-01  2.4240679E-01     0.0271338     0.0354647
         14    2.0145844E-01  2.9553920E-01  1.0474492E+00  7.2688328E+01  4.5132091E-01  2.4912055E-01     0.0261896     0.0384201
         15    1.9433017E-01  3.1827298E-01  1.0457246E+00  7.2994111E+01  4.2740693E-01  2.5434708E-01     0.0252629     0.0413755
         16    1.8732865E-01  3.4100676E-01  1.0441447E+00  7.3279902E+01  4.0585415E-01  2.5818887E-01     0.0243527     0.0443309
         17    1.8044527E-01  3.6374055E-01  1.0427059E+00  7.3545146E+01  3.8652703E-01  2.6074190E-01     0.0234579     0.0472863
         18    1.7367127E-01  3.8647433E-01  1.0414044E+00  7.3789343E+01  3.6929826E-01  2.6209546E-01     0.0225773     0.0502417
         19    1.6699767E-01  4.0920812E-01  1.0402367E+00  7.4012062E+01  3.5404880E-01  2.6233217E-01     0.0217097     0.0531971
         20    1.6041539E-01  4.3194190E-01  1.0391991E+00  7.4212946E+01  3.4066795E-01  2.6152787E-01     0.0208540     0.0561524

         21    1.5391523E-01  4.5467569E-01  1.0382882E+00  7.4391723E+01  3.2905341E-01  2.5975170E-01     0.0200090     0.0591078
         22    1.4748792E-01  4.7740947E-01  1.0375005E+00  7.4548207E+01  3.1911120E-01  2.5706604E-01     0.0191734     0.0620632
         23    1.4112417E-01  5.0014325E-01  1.0368326E+00  7.4682307E+01  3.1075568E-01  2.5352664E-01     0.0183461     0.0650186
         24    1.3481466E-01  5.2287704E-01  1.0362811E+00  7.4794027E+01  3.0390939E-01  2.4918267E-01     0.0175259     0.0679740
         25    1.2855012E-01  5.4561082E-01  1.0358428E+00  7.4883468E+01  2.9850296E-01  2.4407688E-01     0.0167115     0.0709294
         26    1.2232136E-01  5.6834461E-01  1.0355147E+00  7.4950826E+01  2.9447491E-01  2.3824575E-01     0.0159018     0.0738848
         27    1.1611931E-01  5.9107839E-01  1.0352937E+00  7.4996385E+01  2.9177149E-01  2.3171969E-01     0.0150955     0.0768402
         28    1.0993502E-01  6.1381217E-01  1.0351769E+00  7.5020517E+01  2.9034637E-01  2.2452324E-01     0.0142916     0.0797956
         29    1.0375973E-01  6.3654596E-01  1.0351617E+00  7.5023671E+01  2.9016044E-01  2.1667534E-01     0.0134888     0.0827510
         30    9.7584884E-02  6.5927974E-01  1.0352454E+00  7.5006365E+01  2.9118151E-01  2.0818956E-01     0.0126860     0.0857064

         31    9.1402159E-02  6.8201353E-01  1.0354256E+00  7.4969175E+01  2.9338401E-01  1.9907434E-01     0.0118823     0.0886618
         32    8.5203476E-02  7.0474731E-01  1.0357001E+00  7.4912727E+01  2.9674869E-01  1.8933332E-01     0.0110765     0.0916172
         33    7.8981021E-02  7.2748110E-01  1.0360668E+00  7.4837682E+01  3.0126232E-01  1.7896553E-01     0.0102675     0.0945725
         34    7.2727262E-02  7.5021488E-01  1.0365238E+00  7.4744732E+01  3.0691743E-01  1.6796567E-01     0.0094545     0.0975279
         35    6.6434949E-02  7.7294866E-01  1.0370695E+00  7.4634583E+01  3.1371200E-01  1.5632434E-01     0.0086365     0.1004833
         36    6.0097126E-02  7.9568245E-01  1.0377023E+00  7.4507948E+01  3.2164920E-01  1.4402826E-01     0.0078126     0.1034387
         37    5.3707124E-02  8.1841623E-01  1.0384209E+00  7.4365542E+01  3.3073716E-01  1.3106048E-01     0.0069819     0.1063941
         38    4.7258563E-02  8.4115002E-01  1.0392241E+00  7.4208067E+01  3.4098878E-01  1.1740052E-01     0.0061436     0.1093495
         39    4.0745346E-02  8.6388380E-01  1.0401111E+00  7.4036213E+01  3.5242148E-01  1.0302455E-01     0.0052969     0.1123049
         40    3.4161648E-02  8.8661759E-01  1.0410811E+00  7.3850645E+01  3.6505709E-01  8.7905506E-02     0.0044410     0.1152603

         41    2.7501911E-02  9.0935137E-01  1.0421336E+00  7.3652006E+01  3.7892168E-01  7.2013171E-02     0.0035752     0.1182157
         42    2.0760830E-02  9.3208515E-01  1.0432682E+00  7.3440909E+01  3.9404549E-01  5.5314267E-02     0.0026989     0.1211711
         43    1.3933340E-02  9.5481894E-01  1.0444847E+00  7.3217934E+01  4.1046283E-01  3.7772484E-02     0.0018113     0.1241265
         44    7.0146040E-03  9.7755272E-01  1.0457832E+00  7.2983628E+01  4.2821204E-01  1.9348505E-02     0.0009119     0.1270819
         45    0.0000000E+00  1.0002865E+00  1.0471638E+00  7.2738506E+01  4.4733546E-01  0.0000000E+00     0.0000000     0.1300372
1  Mach 20    INVISCID CONTOUR

  CHARACT   1
        POINT        X              Y          MACH NO.     MACH ANG.(D)      PSI (D)      FLOW ANG.(D)       X(IN)         Y(IN)

          1    4.2020148E+01  0.0000000E+00  2.0000000E+01  2.8659840E+00  1.1619530E+02  0.0000000E+00     5.4626193     0.0000000
          2    8.3303586E+01  2.0667570E+00  2.0000000E+01  2.8659840E+00  1.1619530E+02  0.0000000E+00    10.8294662     0.2686784
          3    1.2458702E+02  4.1335139E+00  2.0000000E+01  2.8659840E+00  1.1619530E+02  0.0000000E+00    16.1963132     0.5373568
          4    1.6587046E+02  6.2002709E+00  2.0000000E+01  2.8659840E+00  1.1619530E+02  0.0000000E+00    21.5631602     0.8060352
          5    2.0715390E+02  8.2670279E+00  2.0000000E+01  2.8659840E+00  1.1619530E+02  0.0000000E+00    26.9300071     1.0747136
          6    2.4843734E+02  1.0333785E+01  2.0000000E+01  2.8659840E+00  1.1619530E+02  0.0000000E+00    32.2968541     1.3433920
          7    2.8972078E+02  1.2400542E+01  2.0000000E+01  2.8659840E+00  1.1619530E+02  0.0000000E+00    37.6637010     1.6120704
          8    3.3100422E+02  1.4467299E+01  2.0000000E+01  2.8659840E+00  1.1619530E+02  0.0000000E+00    43.0305480     1.8807488
          9    3.7228765E+02  1.6534056E+01  2.0000000E+01  2.8659840E+00  1.1619530E+02  0.0000000E+00    48.3973950     2.1494272
         10    4.1357109E+02  1.8600813E+01  2.0000000E+01  2.8659840E+00  1.1619530E+02  0.0000000E+00    53.7642419     2.4181057

         11    4.5485453E+02  2.0667570E+01  2.0000000E+01  2.8659840E+00  1.1619530E+02  0.0000000E+00    59.1310889     2.6867841
         12    4.9613797E+02  2.2734327E+01  2.0000000E+01  2.8659840E+00  1.1619530E+02  0.0000000E+00    64.4979358     2.9554625
         13    5.3742141E+02  2.4801084E+01  2.0000000E+01  2.8659840E+00  1.1619530E+02  0.0000000E+00    69.8647828     3.2241409
         14    5.7870484E+02  2.6867841E+01  2.0000000E+01  2.8659840E+00  1.1619530E+02  0.0000000E+00    75.2316298     3.4928193
