            Mach 4    THROAT VELOCITY DISTRIBUTION, X=O, RC=  6.000000

          DERIVATIVES TAKEN WITH RESPECT TO X/Y*, WOP= 0.34136118

          WOPP=  2.8328436E-03     WOPPP= -7.6881686E-02

          Y/YO       U/A*          V/A*           W           MACH NO.

         0.0000    0.96385164   -0.00000000    0.96385164    0.95708127
         0.0227    0.96388554   -0.00032612    0.96388560    0.95712116
         0.0455    0.96398728   -0.00065147    0.96398750    0.95724089
         0.0682    0.96415691   -0.00097528    0.96415741    0.95744054
         0.0909    0.96439457   -0.00129676    0.96439544    0.95772027
         0.1136    0.96470042   -0.00161515    0.96470177    0.95808032
         0.1364    0.96507468   -0.00192964    0.96507661    0.95852097
         0.1591    0.96551762   -0.00223945    0.96552022    0.95904259
         0.1818    0.96602956   -0.00254375    0.96603291    0.95964562
         0.2045    0.96661088   -0.00284175    0.96661506    0.96033054

         0.2273    0.96726200   -0.00313259    0.96726707    0.96109794
         0.2500    0.96798341   -0.00341543    0.96798943    0.96194847
         0.2727    0.96877564   -0.00368939    0.96878266    0.96288284
         0.2955    0.96963929   -0.00395358    0.96964735    0.96390188
         0.3182    0.97057503   -0.00420707    0.97058415    0.96500647
         0.3409    0.97158358   -0.00444893    0.97159376    0.96619759
         0.3636    0.97266573   -0.00467817    0.97267698    0.96747630
         0.3864    0.97382233   -0.00489378    0.97383463    0.96884378
         0.4091    0.97505433   -0.00509470    0.97506764    0.97030128
         0.4318    0.97636271   -0.00527983    0.97637699    0.97185016

         0.4545    0.97774858   -0.00544804    0.97776376    0.97349191
         0.4773    0.97921309   -0.00559813    0.97922909    0.97522810
         0.5000    0.98075749   -0.00572885    0.98077422    0.97706044
         0.5227    0.98238312   -0.00583887    0.98240047    0.97899077
         0.5455    0.98409140   -0.00592683    0.98410925    0.98102105
         0.5682    0.98588388   -0.00599125    0.98590208    0.98315338
         0.5909    0.98776216   -0.00603061    0.98778057    0.98539001
         0.6136    0.98972800   -0.00604329    0.98974645    0.98773333
         0.6364    0.99178323   -0.00602755    0.99180154    0.99018592
         0.6591    0.99392981   -0.00598159    0.99394780    0.99275050

         0.6818    0.99616981   -0.00590345    0.99618731    0.99542999
         0.7045    0.99850546   -0.00579111    0.99852225    0.99822749
         0.7273    1.00093907   -0.00564236    1.00095497    1.00114630
         0.7500    1.00347313   -0.00545488    1.00348795    1.00418993
         0.7727    1.00611024   -0.00522622    1.00612381    1.00736213
         0.7955    1.00885316   -0.00495373    1.00886533    1.01066685
         0.8182    1.01170483   -0.00463462    1.01171544    1.01410833
         0.8409    1.01466830   -0.00426590    1.01467727    1.01769104
         0.8636    1.01774683   -0.00384438    1.01775409    1.02141974
         0.8864    1.02094383   -0.00336667    1.02094938    1.02529949

         0.9091    1.02426291   -0.00282915    1.02426681    1.02933565
         0.9318    1.02770784   -0.00222797    1.02771026    1.03353393
         0.9545    1.03128262   -0.00155902    1.03128380    1.03790036
         0.9773    1.03499143   -0.00081792    1.03499175    1.04244138
         1.0000    1.03883866   -0.00000000    1.03883866    1.04716380
          FROM CUBIC, X/Y* = 0.10589173 FOR W= 1.0

                      X/Y* = 0.30916405 FOR W= 1.06914498

          CORRECTED WOPPP= -7.5033231E-02

          RMASS = Y*/YO = 0.9997135747


          AXIAL VELOCITY DISTRIBUTION, Y=0

          X/Y*         W                 WP                WPP               M                 MP                MPP

         0.000     9.6385164E-01     3.4136118E-01     2.8328436E-03     9.5708127E-01     4.0106175E-01     8.1394664E-02
         0.100     9.9798942E-01     3.4126930E-01    -4.6704794E-03     9.9758876E-01     4.0903012E-01     7.7920331E-02
         0.200     1.0320805E+00     3.4042708E-01    -1.2173802E-02     1.0388752E+00     4.1663401E-01     7.4091422E-02
         0.300     1.0660498E+00     3.3883454E-01    -1.9677126E-02     1.0809021E+00     4.2383370E-01     6.9820989E-02
       0.30913716  1.0691450E+00     3.3865161E-01    -2.0362716E-02     1.0847776E+00     4.2446977E-01     6.9405507E-02
         0.400     1.0998224E+00     3.3649166E-01    -2.7180449E-02     1.1236268E+00     4.3058029E-01     6.5012734E-02
         0.500     1.1333231E+00     3.3339845E-01    -3.4683772E-02     1.1670011E+00     4.3681479E-01     5.9560535E-02
         0.600     1.1664771E+00     3.2955490E-01    -4.2187095E-02     1.2109704E+00     4.4246707E-01     5.3348148E-02
         0.700     1.1992091E+00     3.2496103E-01    -4.9690418E-02     1.2554724E+00     4.4745488E-01     4.6249172E-02
         0.800     1.2314443E+00     3.1961682E-01    -5.7193741E-02     1.3004360E+00     4.5168282E-01     3.8127370E-02
         0.900     1.2631075E+00     3.1352228E-01    -6.4697064E-02     1.3457800E+00     4.5504143E-01     2.8837498E-02
         1.000     1.2941237E+00     3.0667741E-01    -7.2200387E-02     1.3914112E+00     4.5740630E-01     1.8226785E-02
1   Mach 4    INVISCID CONTOUR, 4TH-DEGAXIAL MACH NUMBER DISTRIBUTION FROM THROAT CHARACTERISTIC WHICH HAS  45 POINTS

     NO. OF POINTS ON 1ST CHAR. (M)= 61     NO. OF POINTS ON AXIS (N)= 41     EPSI/ETA= 0.00000    BMACH=  4.00000    CMACH=  4.00000

     GAMMA= 1.4000     INFLECTION ANG. (ETA)= 60.0000  DEGREES     RAD. OF CURV. (RC)=   6.000000     SCALE FACTOR (SF)=   0.13000000

     Y*=1.00000000    RMASS=0.99971357    WWO= 1.0388387    WWOP= 0.39255278    EMACH= 4.00000    FMACH= 4.0000000    GMACH=  0.00000

          WI=  1.06914498    WIP=  0.33865161    WIPP= -2.0362716E-02    MI=  1.08477764    MIP=  0.42446977    MIPP=  6.9405507E-02

          C1=  1.0847776   C2=  4.51922192   C3=  3.9336684E+00   C4= -9.7641131E+00   C5=  4.2264452E+00   C6=  0.0000000E+00

          XOI=  0.10589746   XI=  0.30913716   XO=  0.00000000   YO=  1.00028651   XIE= 10.64674626   XE= 10.95588342    0 ITERATIONS

          MACH 0.95708127 AT  0.0000000 IN.,   MACH 1 AT  0.0137667 IN.,   MACH 1.08477764 AT  0.0401878 IN.

  AXIS
 POINT    X       X(IN)   MACH NO.    DM/DX        D2M/DX2       D3M/DX3       W=Q/A*     DW/DX        D2W/DX2       D3W/DX3

   1  10.95588   1.42426  4.000000  8.342252E-17  3.134198E-17  3.550587E-02  2.138090  1.061696E-17  3.988808E-18  4.518735E-03
   2  10.48158   1.36261  3.999385  3.853394E-03 -1.595261E-02  3.176152E-02  2.138012  4.905832E-04 -2.032039E-03  4.057042E-03
   3  10.01691   1.30220  3.995357  1.456314E-02 -2.985907E-02  2.809321E-02  2.137498  1.858337E-03 -3.825656E-03  3.680186E-03
   4   9.56191   1.24305  3.985213  3.093277E-02 -4.182413E-02  2.450131E-02  2.136200  3.970167E-03 -5.438366E-03  3.431437E-03
   5   9.11665   1.18516  3.966946  5.186800E-02 -5.195103E-02  2.098626E-02  2.133843  6.727239E-03 -6.938258E-03  3.330933E-03
   6   8.68118   1.12855  3.939156  7.637253E-02 -6.034145E-02  1.754846E-02  2.130210  1.006500E-02 -8.395043E-03  3.386007E-03
   7   8.25555   1.07322  3.900969  1.035439E-01 -6.709555E-02  1.418835E-02  2.125121  1.395009E-02 -9.875655E-03  3.598262E-03
   8   7.83981   1.01918  3.851964  1.325693E-01 -7.231191E-02  1.090639E-02  2.118425  1.837613E-02 -1.144263E-02  3.967797E-03
   9   7.43404   0.96643  3.792105  1.627217E-01 -7.608753E-02  7.703038E-03  2.109980  2.335922E-02 -1.315387E-02  4.495231E-03
  10   7.03828   0.91498  3.721677  1.933554E-01 -7.851783E-02  4.578788E-03  2.099658  2.893374E-02 -1.506294E-02  5.182127E-03

  11   6.65261   0.86484  3.641229  2.239026E-01 -7.969662E-02  1.534140E-03  2.087327  3.514838E-02 -1.721916E-02  6.030194E-03
  12   6.27709   0.81602  3.551523  2.538689E-01 -7.971610E-02 -1.430381E-03  2.072859  4.206236E-02 -1.966728E-02  7.039502E-03
  13   5.91179   0.76853  3.453482  2.828299E-01 -7.866684E-02 -4.314231E-03  2.056121  4.974149E-02 -2.244621E-02  8.205789E-03
  14   5.55677   0.72238  3.348154  3.104269E-01 -7.663775E-02 -7.116840E-03  2.036985  5.825391E-02 -2.558697E-02  9.516926E-03
  15   5.21213   0.67758  3.236668  3.363633E-01 -7.371611E-02 -9.837617E-03  2.015321  6.766520E-02 -2.910944E-02  1.094861E-02
  16   4.87792   0.63413  3.120203  3.604009E-01 -6.998749E-02 -1.247594E-02  1.991011  7.803272E-02 -3.301819E-02  1.245950E-02
  17   4.55425   0.59205  2.999958  3.823560E-01 -6.553580E-02 -1.503116E-02  1.963951  8.939909E-02 -3.729741E-02  1.398629E-02
  18   4.24119   0.55135  2.877126  4.020958E-01 -6.044326E-02 -1.750260E-02  1.934063  1.017849E-01 -4.190548E-02  1.543945E-02
  19   3.93883   0.51205  2.752869  4.195349E-01 -5.479035E-02 -1.988953E-02  1.901299  1.151811E-01 -4.676982E-02  1.670068E-02
  20   3.64727   0.47415  2.628306  4.346315E-01 -4.865585E-02 -2.219121E-02  1.865659  1.295415E-01 -5.178294E-02  1.762354E-02

  21   3.36661   0.43766  2.504491  4.473841E-01 -4.211679E-02 -2.440684E-02  1.827197  1.447763E-01 -5.680097E-02  1.803855E-02
  22   3.09696   0.40260  2.382403  4.578278E-01 -3.524847E-02 -2.653557E-02  1.786034  1.607475E-01 -6.164585E-02  1.776385E-02
  23   2.83843   0.36900  2.262941  4.660310E-01 -2.812441E-02 -2.857650E-02  1.742366  1.772685E-01 -6.611221E-02  1.662152E-02
  24   2.59114   0.33685  2.146911  4.720922E-01 -2.081642E-02 -3.052869E-02  1.696467  1.941064E-01 -6.997944E-02  1.445847E-02
  25   2.35523   0.30618  2.035025  4.761363E-01 -1.339452E-02 -3.239110E-02  1.648697  2.109905E-01 -7.302835E-02  1.116911E-02
  26   2.13082   0.27701  1.927902  4.783117E-01 -5.926985E-03 -3.416265E-02  1.599491  2.276253E-01 -7.506105E-02  6.715941E-03
  27   1.91808   0.24935  1.826064  4.787868E-01  1.519648E-03 -3.584216E-02  1.549357  2.437068E-01 -7.592149E-02  1.143389E-03
  28   1.71715   0.22323  1.729944  4.777473E-01  8.880560E-03 -3.742833E-02  1.498859  2.589424E-01 -7.551355E-02 -5.418692E-03
  29   1.52823   0.19867  1.639886  4.753927E-01  1.609262E-02 -3.891979E-02  1.448598  2.730701E-01 -7.381378E-02 -1.276365E-02
  30   1.35149   0.17569  1.556156  4.719336E-01  2.309432E-02 -4.031499E-02  1.399199  2.858764E-01 -7.087668E-02 -2.062779E-02

  31   1.18717   0.15433  1.478947  4.675884E-01  2.982571E-02 -4.161224E-02  1.351281  2.972091E-01 -6.683180E-02 -2.871766E-02
  32   1.03549   0.13461  1.408391  4.625812E-01  3.622827E-02 -4.280966E-02  1.305450  3.069855E-01 -6.187343E-02 -3.673964E-02
  33   0.89672   0.11657  1.344569  4.571383E-01  4.224471E-02 -4.390512E-02  1.262273  3.151931E-01 -5.624507E-02 -4.442639E-02
  34   0.77118   0.10025  1.287528  4.514864E-01  4.781873E-02 -4.489618E-02  1.222276  3.218854E-01 -5.022145E-02 -5.155600E-02
  35   0.65923   0.08570  1.237292  4.458496E-01  5.289455E-02 -4.577999E-02  1.185937  3.271714E-01 -4.409092E-02 -5.796174E-02
  36   0.56128   0.07297  1.193885  4.404481E-01  5.741627E-02 -4.655320E-02  1.153690  3.312029E-01 -3.814062E-02 -6.353227E-02
  37   0.47788   0.06212  1.157352  4.354965E-01  6.132664E-02 -4.721166E-02  1.125939  3.341577E-01 -3.264608E-02 -6.820371E-02
  38   0.40967   0.05326  1.127795  4.312036E-01  6.456495E-02 -4.775007E-02  1.103076  3.362227E-01 -2.786637E-02 -7.194556E-02
  39   0.35759   0.04649  1.105427  4.277762E-01  6.706246E-02 -4.816121E-02  1.085530  3.375751E-01 -2.404641E-02 -7.474151E-02
  40   0.32305   0.04200  1.090691  4.254309E-01  6.873075E-02 -4.843390E-02  1.073856  3.383608E-01 -2.143318E-02 -7.656152E-02

  41   0.30914   0.04019  1.084778  4.244698E-01  6.940551E-02 -4.854375E-02  1.069145  3.386516E-01 -2.036272E-02 -7.728625E-02
    Mach 4    THROAT CHARACTERISTIC
             
        POINT        X              Y          MACH NO.      MACH ANG.(D)     PSI (D)     FLOW ANG.(D)        X(IN)         Y(IN)

          1    3.0913716E-01  0.0000000E+00  1.0847776E+00  6.7197746E+01  1.0529038E+00  0.0000000E+00     0.0401878     0.0000000
          2    2.9968938E-01  2.2733784E-02  1.0808196E+00  6.7702118E+01  9.8245330E-01  3.4811254E-02     0.0389596     0.0029554
          3    2.9045753E-01  4.5467569E-02  1.0770581E+00  6.8195247E+01  9.1681691E-01  6.6427763E-02     0.0377595     0.0059108
          4    2.8143631E-01  6.8201353E-02  1.0734886E+00  6.8676517E+01  8.5576299E-01  9.5024047E-02     0.0365867     0.0088662
          5    2.7262016E-01  9.0935137E-02  1.0701068E+00  6.9145286E+01  7.9906689E-01  1.2076881E-01     0.0354406     0.0118216
          6    2.6400330E-01  1.1366892E-01  1.0669086E+00  6.9600893E+01  7.4651091E-01  1.4382499E-01     0.0343204     0.0147770
          7    2.5557964E-01  1.3640271E-01  1.0638898E+00  7.0042658E+01  6.9788437E-01  1.6434976E-01     0.0332254     0.0177324
          8    2.4734286E-01  1.5913649E-01  1.0610463E+00  7.0469885E+01  6.5298359E-01  1.8249452E-01     0.0321546     0.0206877
          9    2.3928637E-01  1.8187027E-01  1.0583743E+00  7.0881870E+01  6.1161200E-01  1.9840486E-01     0.0311072     0.0236431
         10    2.3140329E-01  2.0460406E-01  1.0558697E+00  7.1277900E+01  5.7358019E-01  2.1222051E-01     0.0300824     0.0265985

         11    2.2368649E-01  2.2733784E-01  1.0535288E+00  7.1657260E+01  5.3870607E-01  2.2407524E-01     0.0290792     0.0295539
         12    2.1612856E-01  2.5007163E-01  1.0513475E+00  7.2019244E+01  5.0681496E-01  2.3409680E-01     0.0280967     0.0325093
         13    2.0872186E-01  2.7280541E-01  1.0493223E+00  7.2363158E+01  4.7773972E-01  2.4240679E-01     0.0271338     0.0354647
         14    2.0145844E-01  2.9553920E-01  1.0474492E+00  7.2688328E+01  4.5132091E-01  2.4912055E-01     0.0261896     0.0384201
         15    1.9433017E-01  3.1827298E-01  1.0457246E+00  7.2994111E+01  4.2740693E-01  2.5434708E-01     0.0252629     0.0413755
         16    1.8732865E-01  3.4100676E-01  1.0441447E+00  7.3279902E+01  4.0585415E-01  2.5818887E-01     0.0243527     0.0443309
         17    1.8044527E-01  3.6374055E-01  1.0427059E+00  7.3545146E+01  3.8652703E-01  2.6074190E-01     0.0234579     0.0472863
         18    1.7367127E-01  3.8647433E-01  1.0414044E+00  7.3789343E+01  3.6929826E-01  2.6209546E-01     0.0225773     0.0502417
         19    1.6699767E-01  4.0920812E-01  1.0402367E+00  7.4012062E+01  3.5404880E-01  2.6233217E-01     0.0217097     0.0531971
         20    1.6041539E-01  4.3194190E-01  1.0391991E+00  7.4212946E+01  3.4066795E-01  2.6152787E-01     0.0208540     0.0561524

         21    1.5391523E-01  4.5467569E-01  1.0382882E+00  7.4391723E+01  3.2905341E-01  2.5975170E-01     0.0200090     0.0591078
         22    1.4748792E-01  4.7740947E-01  1.0375005E+00  7.4548207E+01  3.1911120E-01  2.5706604E-01     0.0191734     0.0620632
         23    1.4112417E-01  5.0014325E-01  1.0368326E+00  7.4682307E+01  3.1075568E-01  2.5352664E-01     0.0183461     0.0650186
         24    1.3481466E-01  5.2287704E-01  1.0362811E+00  7.4794027E+01  3.0390939E-01  2.4918267E-01     0.0175259     0.0679740
         25    1.2855012E-01  5.4561082E-01  1.0358428E+00  7.4883468E+01  2.9850296E-01  2.4407688E-01     0.0167115     0.0709294
         26    1.2232136E-01  5.6834461E-01  1.0355147E+00  7.4950826E+01  2.9447491E-01  2.3824575E-01     0.0159018     0.0738848
         27    1.1611931E-01  5.9107839E-01  1.0352937E+00  7.4996385E+01  2.9177149E-01  2.3171969E-01     0.0150955     0.0768402
         28    1.0993502E-01  6.1381217E-01  1.0351769E+00  7.5020517E+01  2.9034637E-01  2.2452324E-01     0.0142916     0.0797956
         29    1.0375973E-01  6.3654596E-01  1.0351617E+00  7.5023671E+01  2.9016044E-01  2.1667534E-01     0.0134888     0.0827510
         30    9.7584884E-02  6.5927974E-01  1.0352454E+00  7.5006365E+01  2.9118151E-01  2.0818956E-01     0.0126860     0.0857064

         31    9.1402159E-02  6.8201353E-01  1.0354256E+00  7.4969175E+01  2.9338401E-01  1.9907434E-01     0.0118823     0.0886618
         32    8.5203476E-02  7.0474731E-01  1.0357001E+00  7.4912727E+01  2.9674869E-01  1.8933332E-01     0.0110765     0.0916172
         33    7.8981021E-02  7.2748110E-01  1.0360668E+00  7.4837682E+01  3.0126232E-01  1.7896553E-01     0.0102675     0.0945725
         34    7.2727262E-02  7.5021488E-01  1.0365238E+00  7.4744732E+01  3.0691743E-01  1.6796567E-01     0.0094545     0.0975279
         35    6.6434949E-02  7.7294866E-01  1.0370695E+00  7.4634583E+01  3.1371200E-01  1.5632434E-01     0.0086365     0.1004833
         36    6.0097126E-02  7.9568245E-01  1.0377023E+00  7.4507948E+01  3.2164920E-01  1.4402826E-01     0.0078126     0.1034387
         37    5.3707124E-02  8.1841623E-01  1.0384209E+00  7.4365542E+01  3.3073716E-01  1.3106048E-01     0.0069819     0.1063941
         38    4.7258563E-02  8.4115002E-01  1.0392241E+00  7.4208067E+01  3.4098878E-01  1.1740052E-01     0.0061436     0.1093495
         39    4.0745346E-02  8.6388380E-01  1.0401111E+00  7.4036213E+01  3.5242148E-01  1.0302455E-01     0.0052969     0.1123049
         40    3.4161648E-02  8.8661759E-01  1.0410811E+00  7.3850645E+01  3.6505709E-01  8.7905506E-02     0.0044410     0.1152603

         41    2.7501911E-02  9.0935137E-01  1.0421336E+00  7.3652006E+01  3.7892168E-01  7.2013171E-02     0.0035752     0.1182157
         42    2.0760830E-02  9.3208515E-01  1.0432682E+00  7.3440909E+01  3.9404549E-01  5.5314267E-02     0.0026989     0.1211711
         43    1.3933340E-02  9.5481894E-01  1.0444847E+00  7.3217934E+01  4.1046283E-01  3.7772484E-02     0.0018113     0.1241265
         44    7.0146040E-03  9.7755272E-01  1.0457832E+00  7.2983628E+01  4.2821204E-01  1.9348505E-02     0.0009119     0.1270819
         45    0.0000000E+00  1.0002865E+00  1.0471638E+00  7.2738506E+01  4.4733546E-01  0.0000000E+00     0.0000000     0.1300372
1   Mach 4    INVISCID CONTOUR

  CHARACT   1
        POINT        X              Y          MACH NO.     MACH ANG.(D)      PSI (D)      FLOW ANG.(D)       X(IN)         Y(IN)

          1    1.0955883E+01  0.0000000E+00  4.0000000E+00  1.4477512E+01  6.5784820E+01  0.0000000E+00     1.4242648     0.0000000
          2    1.1167216E+01  5.4565837E-02  4.0000000E+00  1.4477512E+01  6.5784820E+01  0.0000000E+00     1.4517381     0.0070936
          3    1.1378549E+01  1.0913167E-01  4.0000000E+00  1.4477512E+01  6.5784820E+01  0.0000000E+00     1.4792113     0.0141871
          4    1.1589881E+01  1.6369751E-01  4.0000000E+00  1.4477512E+01  6.5784820E+01  0.0000000E+00     1.5066845     0.0212807
          5    1.1801214E+01  2.1826335E-01  4.0000000E+00  1.4477512E+01  6.5784820E+01  0.0000000E+00     1.5341578     0.0283742
          6    1.2012546E+01  2.7282918E-01  4.0000000E+00  1.4477512E+01  6.5784820E+01  0.0000000E+00     1.5616310     0.0354678
          7    1.2223879E+01  3.2739502E-01  4.0000000E+00  1.4477512E+01  6.5784820E+01  0.0000000E+00     1.5891043     0.0425614
          8    1.2435211E+01  3.8196086E-01  4.0000000E+00  1.4477512E+01  6.5784820E+01  0.0000000E+00     1.6165775     0.0496549
          9    1.2646544E+01  4.3652670E-01  4.0000000E+00  1.4477512E+01  6.5784820E+01  0.0000000E+00     1.6440507     0.0567485
         10    1.2857877E+01  4.9109253E-01  4.0000000E+00  1.4477512E+01  6.5784820E+01  0.0000000E+00     1.6715240     0.0638420

         11    1.3069209E+01  5.4565837E-01  4.0000000E+00  1.4477512E+01  6.5784820E+01  0.0000000E+00     1.6989972     0.0709356
         12    1.3280542E+01  6.0022421E-01  4.0000000E+00  1.4477512E+01  6.5784820E+01  0.0000000E+00     1.7264704     0.0780291
         13    1.3491874E+01  6.5479004E-01  4.0000000E+00  1.4477512E+01  6.5784820E+01  0.0000000E+00     1.7539437     0.0851227
         14    1.3703207E+01  7.0935588E-01  4.0000000E+00  1.4477512E+01  6.5784820E+01  0.0000000E+00     1.7814169     0.0922163
