            Mach 7    THROAT VELOCITY DISTRIBUTION, X=O, RC=  6.000000

          DERIVATIVES TAKEN WITH RESPECT TO X/Y*, WOP= 0.34136118

          WOPP=  2.8328436E-03     WOPPP= -7.6881686E-02

          Y/YO       U/A*          V/A*           W           MACH NO.

         0.0000    0.96385164   -0.00000000    0.96385164    0.95708127
         0.0227    0.96388554   -0.00032612    0.96388560    0.95712116
         0.0455    0.96398728   -0.00065147    0.96398750    0.95724089
         0.0682    0.96415691   -0.00097528    0.96415741    0.95744054
         0.0909    0.96439457   -0.00129676    0.96439544    0.95772027
         0.1136    0.96470042   -0.00161515    0.96470177    0.95808032
         0.1364    0.96507468   -0.00192964    0.96507661    0.95852097
         0.1591    0.96551762   -0.00223945    0.96552022    0.95904259
         0.1818    0.96602956   -0.00254375    0.96603291    0.95964562
         0.2045    0.96661088   -0.00284175    0.96661506    0.96033054

         0.2273    0.96726200   -0.00313259    0.96726707    0.96109794
         0.2500    0.96798341   -0.00341543    0.96798943    0.96194847
         0.2727    0.96877564   -0.00368939    0.96878266    0.96288284
         0.2955    0.96963929   -0.00395358    0.96964735    0.96390188
         0.3182    0.97057503   -0.00420707    0.97058415    0.96500647
         0.3409    0.97158358   -0.00444893    0.97159376    0.96619759
         0.3636    0.97266573   -0.00467817    0.97267698    0.96747630
         0.3864    0.97382233   -0.00489378    0.97383463    0.96884378
         0.4091    0.97505433   -0.00509470    0.97506764    0.97030128
         0.4318    0.97636271   -0.00527983    0.97637699    0.97185016

         0.4545    0.97774858   -0.00544804    0.97776376    0.97349191
         0.4773    0.97921309   -0.00559813    0.97922909    0.97522810
         0.5000    0.98075749   -0.00572885    0.98077422    0.97706044
         0.5227    0.98238312   -0.00583887    0.98240047    0.97899077
         0.5455    0.98409140   -0.00592683    0.98410925    0.98102105
         0.5682    0.98588388   -0.00599125    0.98590208    0.98315338
         0.5909    0.98776216   -0.00603061    0.98778057    0.98539001
         0.6136    0.98972800   -0.00604329    0.98974645    0.98773333
         0.6364    0.99178323   -0.00602755    0.99180154    0.99018592
         0.6591    0.99392981   -0.00598159    0.99394780    0.99275050

         0.6818    0.99616981   -0.00590345    0.99618731    0.99542999
         0.7045    0.99850546   -0.00579111    0.99852225    0.99822749
         0.7273    1.00093907   -0.00564236    1.00095497    1.00114630
         0.7500    1.00347313   -0.00545488    1.00348795    1.00418993
         0.7727    1.00611024   -0.00522622    1.00612381    1.00736213
         0.7955    1.00885316   -0.00495373    1.00886533    1.01066685
         0.8182    1.01170483   -0.00463462    1.01171544    1.01410833
         0.8409    1.01466830   -0.00426590    1.01467727    1.01769104
         0.8636    1.01774683   -0.00384438    1.01775409    1.02141974
         0.8864    1.02094383   -0.00336667    1.02094938    1.02529949

         0.9091    1.02426291   -0.00282915    1.02426681    1.02933565
         0.9318    1.02770784   -0.00222797    1.02771026    1.03353393
         0.9545    1.03128262   -0.00155902    1.03128380    1.03790036
         0.9773    1.03499143   -0.00081792    1.03499175    1.04244138
         1.0000    1.03883866   -0.00000000    1.03883866    1.04716380
          FROM CUBIC, X/Y* = 0.10589173 FOR W= 1.0

                      X/Y* = 0.30916405 FOR W= 1.06914498

          CORRECTED WOPPP= -7.5033231E-02

          RMASS = Y*/YO = 0.9997135747


          AXIAL VELOCITY DISTRIBUTION, Y=0

          X/Y*         W                 WP                WPP               M                 MP                MPP

         0.000     9.6385164E-01     3.4136118E-01     2.8328436E-03     9.5708127E-01     4.0106175E-01     8.1394664E-02
         0.100     9.9798942E-01     3.4126930E-01    -4.6704794E-03     9.9758876E-01     4.0903012E-01     7.7920331E-02
         0.200     1.0320805E+00     3.4042708E-01    -1.2173802E-02     1.0388752E+00     4.1663401E-01     7.4091422E-02
         0.300     1.0660498E+00     3.3883454E-01    -1.9677126E-02     1.0809021E+00     4.2383370E-01     6.9820989E-02
       0.30913716  1.0691450E+00     3.3865161E-01    -2.0362716E-02     1.0847776E+00     4.2446977E-01     6.9405507E-02
         0.400     1.0998224E+00     3.3649166E-01    -2.7180449E-02     1.1236268E+00     4.3058029E-01     6.5012734E-02
         0.500     1.1333231E+00     3.3339845E-01    -3.4683772E-02     1.1670011E+00     4.3681479E-01     5.9560535E-02
         0.600     1.1664771E+00     3.2955490E-01    -4.2187095E-02     1.2109704E+00     4.4246707E-01     5.3348148E-02
         0.700     1.1992091E+00     3.2496103E-01    -4.9690418E-02     1.2554724E+00     4.4745488E-01     4.6249172E-02
         0.800     1.2314443E+00     3.1961682E-01    -5.7193741E-02     1.3004360E+00     4.5168282E-01     3.8127370E-02
         0.900     1.2631075E+00     3.1352228E-01    -6.4697064E-02     1.3457800E+00     4.5504143E-01     2.8837498E-02
         1.000     1.2941237E+00     3.0667741E-01    -7.2200387E-02     1.3914112E+00     4.5740630E-01     1.8226785E-02
1   Mach 7    INVISCID CONTOUR, 4TH-DEGAXIAL MACH NUMBER DISTRIBUTION FROM THROAT CHARACTERISTIC WHICH HAS  45 POINTS

     NO. OF POINTS ON 1ST CHAR. (M)= 61     NO. OF POINTS ON AXIS (N)= 41     EPSI/ETA= 0.00000    BMACH=  7.00000    CMACH=  7.00000

     GAMMA= 1.4000     INFLECTION ANG. (ETA)= 60.0000  DEGREES     RAD. OF CURV. (RC)=   6.000000     SCALE FACTOR (SF)=   0.13000000

     Y*=1.00000000    RMASS=0.99971357    WWO= 1.0388387    WWOP= 0.39255278    EMACH= 7.00000    FMACH= 7.0000000    GMACH=  0.00000

          WI=  1.06914498    WIP=  0.33865161    WIPP= -2.0362716E-02    MI=  1.08477764    MIP=  0.42446977    MIPP=  6.9405507E-02

          C1=  1.0847776   C2=  7.86202320   C3=  1.1905265E+01   C4= -2.3735709E+01   C5=  9.8836439E+00   C6=  0.0000000E+00

          XOI=  0.10589746   XI=  0.30913716   XO=  0.00000000   YO=  1.00028651   XIE= 18.52198620   XE= 18.83112336    0 ITERATIONS

          MACH 0.95708127 AT  0.0000000 IN.,   MACH 1 AT  0.0137667 IN.,   MACH 1.08477764 AT  0.0401878 IN.

  AXIS
 POINT    X       X(IN)   MACH NO.    DM/DX        D2M/DX2       D3M/DX3       W=Q/A*     DW/DX        D2W/DX2       D3W/DX3

   1  18.83112   2.44805  7.000000 -9.590531E-17 -1.035583E-17  1.491813E-02  2.333333 -2.960040E-18 -3.196245E-19  4.604362E-04
   2  18.00598   2.34078  6.998642  4.889840E-03 -1.162343E-02  1.325508E-02  2.333291  1.510007E-04 -3.592246E-04  4.113723E-04
   3  17.19760   2.23569  6.989760  1.843962E-02 -2.168011E-02  1.162580E-02  2.333017  5.713963E-04 -6.759129E-04  3.747616E-04
   4  16.40605   2.13279  6.967445  3.907581E-02 -3.025104E-02  1.003046E-02  2.332322  1.221439E-03 -9.642245E-04  3.571751E-04
   5  15.63144   2.03209  6.927354  6.536176E-02 -3.741609E-02  8.469244E-03  2.331059  2.075393E-03 -1.241253E-03  3.620569E-04
   6  14.87385   1.93360  6.866513  9.599205E-02 -4.325390E-02  6.942344E-03  2.329104  3.121849E-03 -1.525076E-03  3.916231E-04
   7  14.13339   1.83734  6.783132  1.297869E-01 -4.784193E-02  5.449952E-03  2.326347  4.362971E-03 -1.834167E-03  4.481832E-04
   8  13.41014   1.74332  6.676431  1.656866E-01 -5.125645E-02  3.992268E-03  2.322682  5.813566E-03 -2.187638E-03  5.350154E-04
   9  12.70422   1.65155  6.546485  2.027462E-01 -5.357250E-02  2.569500E-03  2.318000  7.500452E-03 -2.605940E-03  6.569670E-04
  10  12.01573   1.56205  6.394078  2.401297E-01 -5.486388E-02  1.181863E-03  2.312181  9.462290E-03 -3.111807E-03  8.209166E-04

  11  11.34478   1.47482  6.220572  2.771051E-01 -5.520320E-02 -1.704179E-04  2.305088  1.174992E-02 -3.731321E-03  1.036178E-03
  12  10.69149   1.38989  6.027785  3.130388E-01 -5.466177E-02 -1.487111E-03  2.296565  1.442712E-02 -4.495034E-03  1.314873E-03
  13  10.05598   1.30728  5.817884  3.473905E-01 -5.330969E-02 -2.767973E-03  2.286428  1.757172E-02 -5.439051E-03  1.672230E-03
  14   9.43837   1.22699  5.593286  3.797081E-01 -5.121577E-02 -4.012753E-03  2.274469  2.127686E-02 -6.605981E-03  2.126726E-03
  15   8.83879   1.14904  5.356571  4.096222E-01 -4.844754E-02 -5.221186E-03  2.260443  2.565207E-02 -8.045565E-03  2.699854E-03
  16   8.25739   1.07346  5.110406  4.368414E-01 -4.507126E-02 -6.392998E-03  2.244075  3.082397E-02 -9.814675E-03  3.415237E-03
  17   7.69430   1.00026  4.857477  4.611472E-01 -4.115188E-02 -7.527900E-03  2.225055  3.693586E-02 -1.197626E-02  4.296629E-03
  18   7.14967   0.92946  4.600429  4.823890E-01 -3.675305E-02 -8.625589E-03  2.203040  4.414566E-02 -1.459660E-02  5.364220E-03
  19   6.62366   0.86108  4.341820  5.004792E-01 -3.193710E-02 -9.685746E-03  2.177662  5.262121E-02 -1.774014E-02  6.628603E-03
  20   6.11644   0.79514  4.084075  5.153886E-01 -2.676502E-02 -1.070804E-02  2.148538  6.253188E-02 -2.146111E-02  8.081812E-03

  21   5.62818   0.73166  3.829455  5.271413E-01 -2.129651E-02 -1.169211E-02  2.115284  7.403564E-02 -2.579122E-02  9.685365E-03
  22   5.15907   0.67068  3.580031  5.358105E-01 -1.558990E-02 -1.263758E-02  2.077542  8.726071E-02 -3.072358E-02  1.135619E-02
  23   4.70931   0.61221  3.337663  5.415135E-01 -9.702164E-03 -1.354407E-02  2.035009  1.022821E-01 -3.619385E-02  1.295304E-02
  24   4.27911   0.55628  3.103987  5.444073E-01 -3.688964E-03 -1.441113E-02  1.987482  1.190946E-01 -4.206159E-02  1.426821E-02
  25   3.86869   0.50293  2.880410  5.446843E-01  2.395401E-03 -1.523832E-02  1.934893  1.375852E-01 -4.809689E-02  1.503105E-02
  26   3.47829   0.45218  2.668103  5.425680E-01  8.497970E-03 -1.602516E-02  1.877366  1.575114E-01 -5.397873E-02  1.493025E-02
  27   3.10818   0.40406  2.468011  5.383082E-01  1.456711E-02 -1.677111E-02  1.815247  1.784909E-01 -5.931173E-02  1.365794E-02
  28   2.75864   0.35862  2.280858  5.321774E-01  2.055250E-02 -1.747561E-02  1.749140  2.000110E-01 -6.366463E-02  1.097184E-02
  29   2.42997   0.31590  2.107162  5.244666E-01  2.640508E-02 -1.813804E-02  1.679904  2.214606E-01 -6.662798E-02  6.761240E-03
  30   2.12251   0.27593  1.947246  5.154810E-01  3.207707E-02 -1.875772E-02  1.608638  2.421832E-01 -6.788075E-02  1.095893E-03

  31   1.83663   0.23876  1.801267  5.055366E-01  3.752180E-02 -1.933389E-02  1.536632  2.615453E-01 -6.725015E-02 -5.762633E-03
  32   1.57276   0.20446  1.669234  4.949562E-01  4.269371E-02 -1.986573E-02  1.465298  2.790051E-01 -6.474823E-02 -1.339611E-02
  33   1.33135   0.17308  1.551040  4.840662E-01  4.754813E-02 -2.035228E-02  1.396094  2.941705E-01 -6.057527E-02 -2.130292E-02
  34   1.11295   0.14468  1.446490  4.731928E-01  5.204110E-02 -2.079245E-02  1.330444  3.068316E-01 -5.509042E-02 -2.898654E-02
  35   0.91819   0.11936  1.355341  4.626601E-01  5.612900E-02 -2.118500E-02  1.269676  3.169672E-01 -4.875968E-02 -3.603211E-02
  36   0.74779   0.09721  1.277340  4.527871E-01  5.976799E-02 -2.152842E-02  1.214991  3.247225E-01 -4.209685E-02 -4.215187E-02
  37   0.60269   0.07835  1.212279  4.438868E-01  6.291307E-02 -2.182087E-02  1.167451  3.303693E-01 -3.561203E-02 -4.719338E-02
  38   0.48404   0.06293  1.160060  4.362680E-01  6.551631E-02 -2.206001E-02  1.128016  3.342532E-01 -2.977765E-02 -5.111666E-02
  39   0.39344   0.05115  1.120805  4.302413E-01  6.752327E-02 -2.224262E-02  1.097616  3.367374E-01 -2.501679E-02 -5.395126E-02
  40   0.33335   0.04334  1.095074  4.261435E-01  6.886351E-02 -2.236373E-02  1.077337  3.381422E-01 -2.172061E-02 -5.574008E-02

  41   0.30914   0.04019  1.084778  4.244698E-01  6.940551E-02 -2.241253E-02  1.069145  3.386516E-01 -2.036272E-02 -5.643817E-02
    Mach 7    THROAT CHARACTERISTIC
             
        POINT        X              Y          MACH NO.      MACH ANG.(D)     PSI (D)     FLOW ANG.(D)        X(IN)         Y(IN)

          1    3.0913716E-01  0.0000000E+00  1.0847776E+00  6.7197746E+01  1.0529038E+00  0.0000000E+00     0.0401878     0.0000000
          2    2.9968938E-01  2.2733784E-02  1.0808196E+00  6.7702118E+01  9.8245330E-01  3.4811254E-02     0.0389596     0.0029554
          3    2.9045753E-01  4.5467569E-02  1.0770581E+00  6.8195247E+01  9.1681691E-01  6.6427763E-02     0.0377595     0.0059108
          4    2.8143631E-01  6.8201353E-02  1.0734886E+00  6.8676517E+01  8.5576299E-01  9.5024047E-02     0.0365867     0.0088662
          5    2.7262016E-01  9.0935137E-02  1.0701068E+00  6.9145286E+01  7.9906689E-01  1.2076881E-01     0.0354406     0.0118216
          6    2.6400330E-01  1.1366892E-01  1.0669086E+00  6.9600893E+01  7.4651091E-01  1.4382499E-01     0.0343204     0.0147770
          7    2.5557964E-01  1.3640271E-01  1.0638898E+00  7.0042658E+01  6.9788437E-01  1.6434976E-01     0.0332254     0.0177324
          8    2.4734286E-01  1.5913649E-01  1.0610463E+00  7.0469885E+01  6.5298359E-01  1.8249452E-01     0.0321546     0.0206877
          9    2.3928637E-01  1.8187027E-01  1.0583743E+00  7.0881870E+01  6.1161200E-01  1.9840486E-01     0.0311072     0.0236431
         10    2.3140329E-01  2.0460406E-01  1.0558697E+00  7.1277900E+01  5.7358019E-01  2.1222051E-01     0.0300824     0.0265985

         11    2.2368649E-01  2.2733784E-01  1.0535288E+00  7.1657260E+01  5.3870607E-01  2.2407524E-01     0.0290792     0.0295539
         12    2.1612856E-01  2.5007163E-01  1.0513475E+00  7.2019244E+01  5.0681496E-01  2.3409680E-01     0.0280967     0.0325093
         13    2.0872186E-01  2.7280541E-01  1.0493223E+00  7.2363158E+01  4.7773972E-01  2.4240679E-01     0.0271338     0.0354647
         14    2.0145844E-01  2.9553920E-01  1.0474492E+00  7.2688328E+01  4.5132091E-01  2.4912055E-01     0.0261896     0.0384201
         15    1.9433017E-01  3.1827298E-01  1.0457246E+00  7.2994111E+01  4.2740693E-01  2.5434708E-01     0.0252629     0.0413755
         16    1.8732865E-01  3.4100676E-01  1.0441447E+00  7.3279902E+01  4.0585415E-01  2.5818887E-01     0.0243527     0.0443309
         17    1.8044527E-01  3.6374055E-01  1.0427059E+00  7.3545146E+01  3.8652703E-01  2.6074190E-01     0.0234579     0.0472863
         18    1.7367127E-01  3.8647433E-01  1.0414044E+00  7.3789343E+01  3.6929826E-01  2.6209546E-01     0.0225773     0.0502417
         19    1.6699767E-01  4.0920812E-01  1.0402367E+00  7.4012062E+01  3.5404880E-01  2.6233217E-01     0.0217097     0.0531971
         20    1.6041539E-01  4.3194190E-01  1.0391991E+00  7.4212946E+01  3.4066795E-01  2.6152787E-01     0.0208540     0.0561524

         21    1.5391523E-01  4.5467569E-01  1.0382882E+00  7.4391723E+01  3.2905341E-01  2.5975170E-01     0.0200090     0.0591078
         22    1.4748792E-01  4.7740947E-01  1.0375005E+00  7.4548207E+01  3.1911120E-01  2.5706604E-01     0.0191734     0.0620632
         23    1.4112417E-01  5.0014325E-01  1.0368326E+00  7.4682307E+01  3.1075568E-01  2.5352664E-01     0.0183461     0.0650186
         24    1.3481466E-01  5.2287704E-01  1.0362811E+00  7.4794027E+01  3.0390939E-01  2.4918267E-01     0.0175259     0.0679740
         25    1.2855012E-01  5.4561082E-01  1.0358428E+00  7.4883468E+01  2.9850296E-01  2.4407688E-01     0.0167115     0.0709294
         26    1.2232136E-01  5.6834461E-01  1.0355147E+00  7.4950826E+01  2.9447491E-01  2.3824575E-01     0.0159018     0.0738848
         27    1.1611931E-01  5.9107839E-01  1.0352937E+00  7.4996385E+01  2.9177149E-01  2.3171969E-01     0.0150955     0.0768402
         28    1.0993502E-01  6.1381217E-01  1.0351769E+00  7.5020517E+01  2.9034637E-01  2.2452324E-01     0.0142916     0.0797956
         29    1.0375973E-01  6.3654596E-01  1.0351617E+00  7.5023671E+01  2.9016044E-01  2.1667534E-01     0.0134888     0.0827510
         30    9.7584884E-02  6.5927974E-01  1.0352454E+00  7.5006365E+01  2.9118151E-01  2.0818956E-01     0.0126860     0.0857064

         31    9.1402159E-02  6.8201353E-01  1.0354256E+00  7.4969175E+01  2.9338401E-01  1.9907434E-01     0.0118823     0.0886618
         32    8.5203476E-02  7.0474731E-01  1.0357001E+00  7.4912727E+01  2.9674869E-01  1.8933332E-01     0.0110765     0.0916172
         33    7.8981021E-02  7.2748110E-01  1.0360668E+00  7.4837682E+01  3.0126232E-01  1.7896553E-01     0.0102675     0.0945725
         34    7.2727262E-02  7.5021488E-01  1.0365238E+00  7.4744732E+01  3.0691743E-01  1.6796567E-01     0.0094545     0.0975279
         35    6.6434949E-02  7.7294866E-01  1.0370695E+00  7.4634583E+01  3.1371200E-01  1.5632434E-01     0.0086365     0.1004833
         36    6.0097126E-02  7.9568245E-01  1.0377023E+00  7.4507948E+01  3.2164920E-01  1.4402826E-01     0.0078126     0.1034387
         37    5.3707124E-02  8.1841623E-01  1.0384209E+00  7.4365542E+01  3.3073716E-01  1.3106048E-01     0.0069819     0.1063941
         38    4.7258563E-02  8.4115002E-01  1.0392241E+00  7.4208067E+01  3.4098878E-01  1.1740052E-01     0.0061436     0.1093495
         39    4.0745346E-02  8.6388380E-01  1.0401111E+00  7.4036213E+01  3.5242148E-01  1.0302455E-01     0.0052969     0.1123049
         40    3.4161648E-02  8.8661759E-01  1.0410811E+00  7.3850645E+01  3.6505709E-01  8.7905506E-02     0.0044410     0.1152603

         41    2.7501911E-02  9.0935137E-01  1.0421336E+00  7.3652006E+01  3.7892168E-01  7.2013171E-02     0.0035752     0.1182157
         42    2.0760830E-02  9.3208515E-01  1.0432682E+00  7.3440909E+01  3.9404549E-01  5.5314267E-02     0.0026989     0.1211711
         43    1.3933340E-02  9.5481894E-01  1.0444847E+00  7.3217934E+01  4.1046283E-01  3.7772484E-02     0.0018113     0.1241265
         44    7.0146040E-03  9.7755272E-01  1.0457832E+00  7.2983628E+01  4.2821204E-01  1.9348505E-02     0.0009119     0.1270819
         45    0.0000000E+00  1.0002865E+00  1.0471638E+00  7.2738506E+01  4.4733546E-01  0.0000000E+00     0.0000000     0.1300372
1   Mach 7    INVISCID CONTOUR

  CHARACT   1
        POINT        X              Y          MACH NO.     MACH ANG.(D)      PSI (D)      FLOW ANG.(D)       X(IN)         Y(IN)

          1    1.8831123E+01  0.0000000E+00  7.0000000E+00  8.2132107E+00  9.0972732E+01  0.0000000E+00     2.4480460     0.0000000
          2    2.0009500E+01  1.7008401E-01  7.0000000E+00  8.2132107E+00  9.0972732E+01  0.0000000E+00     2.6012350     0.0221109
          3    2.1187877E+01  3.4016803E-01  7.0000000E+00  8.2132107E+00  9.0972732E+01  0.0000000E+00     2.7544240     0.0442218
          4    2.2366253E+01  5.1025204E-01  7.0000000E+00  8.2132107E+00  9.0972732E+01  0.0000000E+00     2.9076129     0.0663328
          5    2.3544630E+01  6.8033605E-01  7.0000000E+00  8.2132107E+00  9.0972732E+01  0.0000000E+00     3.0608019     0.0884437
          6    2.4723006E+01  8.5042006E-01  7.0000000E+00  8.2132107E+00  9.0972732E+01  0.0000000E+00     3.2139908     0.1105546
          7    2.5901383E+01  1.0205041E+00  7.0000000E+00  8.2132107E+00  9.0972732E+01  0.0000000E+00     3.3671798     0.1326655
          8    2.7079760E+01  1.1905881E+00  7.0000000E+00  8.2132107E+00  9.0972732E+01  0.0000000E+00     3.5203687     0.1547765
          9    2.8258136E+01  1.3606721E+00  7.0000000E+00  8.2132107E+00  9.0972732E+01  0.0000000E+00     3.6735577     0.1768874
         10    2.9436513E+01  1.5307561E+00  7.0000000E+00  8.2132107E+00  9.0972732E+01  0.0000000E+00     3.8267467     0.1989983

         11    3.0614889E+01  1.7008401E+00  7.0000000E+00  8.2132107E+00  9.0972732E+01  0.0000000E+00     3.9799356     0.2211092
         12    3.1793266E+01  1.8709241E+00  7.0000000E+00  8.2132107E+00  9.0972732E+01  0.0000000E+00     4.1331246     0.2432201
         13    3.2971643E+01  2.0410082E+00  7.0000000E+00  8.2132107E+00  9.0972732E+01  0.0000000E+00     4.2863135     0.2653311
         14    3.4150019E+01  2.2110922E+00  7.0000000E+00  8.2132107E+00  9.0972732E+01  0.0000000E+00     4.4395025     0.2874420
