           MACH 6  0  THROAT VELOCITY DISTRIBUTION, X=O, RC=  5.500000

          DERIVATIVES TAKEN WITH RESPECT TO X/Y*, WOP= 0.35416696

          WOPP=  2.6280835E-03     WOPPP= -8.5908419E-02

          Y/YO       U/A*          V/A*           W           MACH NO.

         0.0000    0.96100264    0.00000000    0.96100264    0.95373671
         0.0250    0.96104660   -0.00040060    0.96104668    0.95378838
         0.0500    0.96117853   -0.00080007    0.96117886    0.95394344
         0.0750    0.96139854   -0.00119729    0.96139929    0.95420204
         0.1000    0.96170685   -0.00159112    0.96170816    0.95456445
         0.1250    0.96210371   -0.00198042    0.96210575    0.95503106
         0.1500    0.96258951   -0.00236403    0.96259241    0.95560234
         0.1750    0.96316469   -0.00274078    0.96316859    0.95627891
         0.2000    0.96382978   -0.00310948    0.96383480    0.95706147
         0.2250    0.96458541   -0.00346891    0.96459165    0.95795088

         0.2500    0.96543230   -0.00381782    0.96543985    0.95894808
         0.2750    0.96637126   -0.00415494    0.96638019    0.96005417
         0.3000    0.96740320   -0.00447896    0.96741356    0.96127039
         0.3250    0.96852914   -0.00478850    0.96854097    0.96259811
         0.3500    0.96975020   -0.00508218    0.96976352    0.96403883
         0.3750    0.97106764   -0.00535851    0.97108242    0.96559424
         0.4000    0.97248280   -0.00561598    0.97249902    0.96726617
         0.4250    0.97399717   -0.00585299    0.97401476    0.96905664
         0.4500    0.97561237   -0.00606786    0.97563124    0.97096784
         0.4750    0.97733015   -0.00625882    0.97735019    0.97300216

         0.5000    0.97915241   -0.00642401    0.97917349    0.97516219
         0.5250    0.98108121   -0.00656146    0.98110315    0.97745073
         0.5500    0.98311876   -0.00666909    0.98314138    0.97987083
         0.5750    0.98526744   -0.00674465    0.98529052    0.98242576
         0.6000    0.98752981   -0.00678580    0.98755312    0.98511906
         0.6250    0.98990862   -0.00678999    0.98993190    0.98795453
         0.6500    0.99240682   -0.00675452    0.99242980    0.99093629
         0.6750    0.99502755   -0.00667649    0.99504995    0.99406873
         0.7000    0.99777419   -0.00655280    0.99779571    0.99735660
         0.7250    1.00065034   -0.00638012    1.00067068    1.00080498

         0.7500    1.00365982   -0.00615487    1.00367869    1.00441932
         0.7750    1.00680673   -0.00587319    1.00682386    1.00820547
         0.8000    1.01009541   -0.00553094    1.01011055    1.01216971
         0.8250    1.01353049   -0.00512368    1.01354344    1.01631876
         0.8500    1.01711687   -0.00464661    1.01712748    1.02065980
         0.8750    1.02085978   -0.00409457    1.02086799    1.02520056
         0.9000    1.02476473   -0.00346201    1.02477058    1.02994928
         0.9250    1.02883759   -0.00274295    1.02884124    1.03491480
         0.9500    1.03308454   -0.00193096    1.03308635    1.04010657
         0.9750    1.03751216   -0.00101912    1.03751267    1.04553473

         1.0000    1.04212737   -0.00000000    1.04212737    1.05121012
          FROM CUBIC, X/Y* = 0.11011768 FOR W= 1.0

                      X/Y* = 0.32282741 FOR W= 1.07499266

          CORRECTED WOPPP= -8.3637904E-02

          RMASS = Y*/YO = 0.9996643145


          AXIAL VELOCITY DISTRIBUTION, Y=0

          X/Y*         W                 WP                WPP               M                 MP                MPP

         0.000     9.6100264E-01     3.5416696E-01     2.6280835E-03     9.5373671E-01     4.1543306E-01     8.6641617E-02
         0.100     9.9641853E-01     3.5401158E-01    -5.7357069E-03     9.9570685E-01     4.2390428E-01     8.2721512E-02
         0.200     1.0317771E+00     3.5301982E-01    -1.4099497E-02     1.0385038E+00     4.3196349E-01     7.8384910E-02
         0.300     1.0669946E+00     3.5119168E-01    -2.2463288E-02     1.0820843E+00     4.3956390E-01     7.3527143E-02
       0.32279110  1.0749927E+00     3.5065799E-01    -2.4369487E-02     1.0921214E+00     4.4122615E-01     7.2335243E-02
         0.400     1.1019875E+00     3.4852716E-01    -3.0827078E-02     1.1263994E+00     4.4664769E-01     6.8031997E-02
         0.500     1.1366722E+00     3.4502626E-01    -3.9190869E-02     1.1713943E+00     4.5314479E-01     6.1771152E-02
         0.600     1.1709649E+00     3.4068899E-01    -4.7554659E-02     1.2170061E+00     4.5897172E-01     5.4603876E-02
         0.700     1.2047821E+00     3.3551533E-01    -5.5918449E-02     1.2631630E+00     4.6403026E-01     4.6377082E-02
         0.800     1.2380401E+00     3.2950530E-01    -6.4282240E-02     1.3097827E+00     4.6820633E-01     3.6925914E-02
         0.900     1.2706553E+00     3.2265888E-01    -7.2646030E-02     1.3567705E+00     4.7136880E-01     2.6075048E-02
         1.000     1.3025440E+00     3.1497609E-01    -8.1009821E-02     1.4040177E+00     4.7336857E-01     1.3640926E-02
1  MACH 6  0  INVISCID CONTOUR, 4TH-DEGAXIAL MACH NUMBER DISTRIBUTION FROM THROAT CHARACTERISTIC WHICH HAS  41 POINTS

     NO. OF POINTS ON 1ST CHAR. (M)= 49     NO. OF POINTS ON AXIS (N)= 41     EPSI/ETA= 0.00000    BMACH=  6.00000    CMACH=  6.00000

     GAMMA= 1.4000     INFLECTION ANG. (ETA)= 60.0000  DEGREES     RAD. OF CURV. (RC)=   5.500000     SCALE FACTOR (SF)=   0.32500000

     Y*=1.00000000    RMASS=0.99966431    WWO= 1.0421274    WWOP= 0.41153929    EMACH= 6.00000    FMACH= 6.0000000    GMACH=  0.00000

          WI=  1.07499266    WIP=  0.35065799    WIPP= -2.4369487E-02    MI=  1.09212140    MIP=  0.44122615    MIPP=  7.2335243E-02

          C1=  1.0921214   C2=  6.88243253   C3=  8.7999740E+00   C4= -1.8615731E+01   C5=  7.8412033E+00   C6=  0.0000000E+00

          XOI=  0.11012534   XI=  0.32279110   XO=  0.00000000   YO=  1.00033580   XIE= 15.59842397   XE= 15.92121507    0 ITERATIONS

          MACH 0.95373671 AT  0.0000000 IN.,   MACH 1 AT  0.0357907 IN.,   MACH 1.09212140 AT  0.1049071 IN.

  AXIS
 POINT    X       X(IN)   MACH NO.    DM/DX        D2M/DX2       D3M/DX3       W=Q/A*     DW/DX        D2W/DX2       D3W/DX3

   1  15.92122   5.17439  6.000000  2.847013E-16  2.920309E-17  2.015524E-02  2.295276  1.328187E-17  1.362381E-18  9.402814E-04
   2  15.41618   5.01026  5.999576  2.502169E-03 -9.773730E-03  1.854980E-02  2.295256  1.167528E-04 -4.561768E-04  8.670489E-04
   3  14.91501   4.84738  5.996714  9.663295E-03 -1.867105E-02  1.695667E-02  2.295123  4.514626E-04 -8.742150E-04  8.033211E-04
   4  14.41779   4.68578  5.989261  2.097799E-02 -2.670937E-02  1.537606E-02  2.294774  9.832923E-04 -1.261005E-03  7.554602E-04
   5  13.92458   4.52549  5.975367  3.595789E-02 -3.390634E-02  1.380822E-02  2.294121  1.695774E-03 -1.625877E-03  7.277069E-04
   6  13.43546   4.36653  5.953462  5.413171E-02 -4.027991E-02  1.225339E-02  2.293083  2.577632E-03 -1.979659E-03  7.229272E-04
   7  12.95052   4.20892  5.922249  7.504546E-02 -4.584830E-02  1.071183E-02  2.291586  3.623195E-03 -2.334107E-03  7.432735E-04
   8  12.46984   4.05270  5.880688  9.826248E-02 -5.063002E-02  9.183818E-03  2.289561  4.832575E-03 -2.701645E-03  7.907304E-04
   9  11.99351   3.89789  5.827981  1.233637E-01 -5.464392E-02  7.669634E-03  2.286938  6.211762E-03 -3.095344E-03  8.675530E-04
  10  11.52163   3.74453  5.763556  1.499475E-01 -5.790917E-02  6.169582E-03  2.283647  7.772722E-03 -3.529087E-03  9.766201E-04

  11  11.05429   3.59264  5.687057  1.776304E-01 -6.044532E-02  4.683978E-03  2.279611  9.533574E-03 -4.017860E-03  1.121727E-03
  12  10.59160   3.44227  5.598328  2.060466E-01 -6.227227E-02  3.213158E-03  2.274751  1.151889E-02 -4.578160E-03  1.307842E-03
  13  10.13368   3.29344  5.497399  2.348487E-01 -6.341036E-02  1.757478E-03  2.268974  1.376017E-02 -5.228474E-03  1.541339E-03
  14   9.68063   3.14621  5.384473  2.637075E-01 -6.388035E-02  3.173141E-04  2.262179  1.629643E-02 -5.989824E-03  1.830215E-03
  15   9.23259   3.00059  5.259912  2.923125E-01 -6.370346E-02 -1.106934E-03  2.254248  1.917501E-02 -6.886356E-03  2.184278E-03
  16   8.78970   2.85665  5.124221  3.203719E-01 -6.290142E-02 -2.514839E-03  2.245047  2.245256E-02 -7.945945E-03  2.615288E-03
  17   8.35208   2.71443  4.978039  3.476132E-01 -6.149652E-02 -3.905946E-03  2.234422  2.619605E-02 -9.200765E-03  3.136982E-03
  18   7.91991   2.57397  4.822123  3.737829E-01 -5.951160E-02 -5.279768E-03  2.222197  3.048394E-02 -1.068776E-02  3.764899E-03
  19   7.49334   2.43533  4.657336  3.986474E-01 -5.697017E-02 -6.635783E-03  2.208170  3.540730E-02 -1.244890E-02  4.515863E-03
  20   7.07254   2.29858  4.484630  4.219932E-01 -5.389644E-02 -7.973427E-03  2.192110  4.107064E-02 -1.453099E-02  5.406902E-03

  21   6.65772   2.16376  4.305039  4.436268E-01 -5.031537E-02 -9.292091E-03  2.173756  4.759238E-02 -1.698481E-02  6.453297E-03
  22   6.24907   2.03095  4.119661  4.633760E-01 -4.625278E-02 -1.059112E-02  2.152813  5.510440E-02 -1.986321E-02  7.665372E-03
  23   5.84683   1.90022  3.929649  4.810894E-01 -4.173543E-02 -1.186978E-02  2.128954  6.375024E-02 -2.321754E-02  9.043532E-03
  24   5.45124   1.77165  3.736195  4.966380E-01 -3.679113E-02 -1.312731E-02  2.101821  7.368127E-02 -2.709194E-02  1.057106E-02
  25   5.06258   1.64534  3.540521  5.099148E-01 -3.144888E-02 -1.436282E-02  2.071030  8.504991E-02 -3.151464E-02  1.220435E-02
  26   4.68113   1.52137  3.343865  5.208365E-01 -2.573902E-02 -1.557538E-02  2.036179  9.799896E-02 -3.648585E-02  1.386058E-02
  27   4.30725   1.39986  3.147471  5.293436E-01 -1.969343E-02 -1.676390E-02  1.996864  1.126462E-01 -4.196190E-02  1.540405E-02
  28   3.94130   1.28092  2.952577  5.354020E-01 -1.334577E-02 -1.792722E-02  1.952702  1.290634E-01 -4.783654E-02  1.663361E-02
  29   3.58370   1.16470  2.760404  5.390040E-01 -6.731790E-03 -1.906397E-02  1.903363  1.472507E-01 -5.392130E-02  1.727589E-02
  30   3.23494   1.05135  2.572148  5.401699E-01  1.102883E-04 -2.017263E-02  1.848606  1.671068E-01 -5.992938E-02  1.699143E-02

  31   2.89557   0.94106  2.388973  5.389501E-01  7.139247E-03 -2.125142E-02  1.788336  1.884000E-01 -6.546951E-02  1.540134E-02
  32   2.56625   0.83403  2.212000  5.354277E-01  1.431019E-02 -2.229829E-02  1.722654  2.107455E-01 -7.005771E-02  1.214075E-02
  33   2.24774   0.73052  2.042309  5.297216E-01  2.157360E-02 -2.331078E-02  1.651917  2.335965E-01 -7.315474E-02  6.937706E-03
  34   1.94098   0.63082  1.880941  5.219916E-01  2.887395E-02 -2.428592E-02  1.576792  2.562593E-01 -7.423200E-02 -2.950599E-04
  35   1.64713   0.53532  1.728903  5.124450E-01  3.614769E-02 -2.522004E-02  1.498294  2.779366E-01 -7.286143E-02 -9.382025E-03
  36   1.36766   0.44449  1.587196  5.013465E-01  4.331997E-02 -2.610842E-02  1.417818  2.978016E-01 -6.881433E-02 -1.985337E-02
  37   1.10456   0.35898  1.456871  4.890357E-01  5.029913E-02 -2.694478E-02  1.337153  3.150940E-01 -6.214808E-02 -3.098526E-02
  38   0.86064   0.27971  1.339145  4.759573E-01  5.696618E-02 -2.772018E-02  1.258527  3.292240E-01 -5.326336E-02 -4.191130E-02
  39   0.64029   0.20809  1.235700  4.627261E-01  6.315151E-02 -2.842064E-02  1.184768  3.398628E-01 -4.293707E-02 -5.176798E-02
  40   0.45174   0.14681  1.149606  4.503099E-01  6.856684E-02 -2.902003E-02  1.119983  3.469902E-01 -3.241089E-02 -5.978900E-02

  41   0.32279   0.10491  1.092121  4.412261E-01  7.233524E-02 -2.942993E-02  1.074993  3.506580E-01 -2.436949E-02 -6.487156E-02
   MACH 6  0  THROAT CHARACTERISTIC
             
        POINT        X              Y          MACH NO.      MACH ANG.(D)     PSI (D)     FLOW ANG.(D)        X(IN)         Y(IN)

          1    3.2279110E-01  0.0000000E+00  1.0921214E+00  6.6298080E+01  1.1872117E+00  0.0000000E+00     0.1049071     0.0000000
          2    3.1195006E-01  2.5008395E-02  1.0874068E+00  6.6870451E+01  1.1004622E+00  4.2815519E-02     0.1013838     0.0081277
          3    3.0138008E-01  5.0016790E-02  1.0829496E+00  6.7428910E+01  1.0201923E+00  8.1332656E-02     0.0979485     0.0162555
          4    2.9107389E-01  7.5025185E-02  1.0787433E+00  6.7972598E+01  9.4606074E-01  1.1580856E-01     0.0945990     0.0243832
          5    2.8102381E-01  1.0003358E-01  1.0747816E+00  6.8500625E+01  8.7773798E-01  1.4649084E-01     0.0913327     0.0325109
          6    2.7122177E-01  1.2504197E-01  1.0710584E+00  6.9012066E+01  8.1490571E-01  1.7361770E-01     0.0881471     0.0406386
          7    2.6165930E-01  1.5005037E-01  1.0675678E+00  6.9505969E+01  7.5725698E-01  1.9741794E-01     0.0850393     0.0487664
          8    2.5232752E-01  1.7505876E-01  1.0643038E+00  6.9981364E+01  7.0449627E-01  2.1811094E-01     0.0820064     0.0568941
          9    2.4321712E-01  2.0006716E-01  1.0612608E+00  7.0437264E+01  6.5633962E-01  2.3590662E-01     0.0790456     0.0650218
         10    2.3431841E-01  2.2507555E-01  1.0584332E+00  7.0872678E+01  6.1251480E-01  2.5100531E-01     0.0761535     0.0731496

         11    2.2562126E-01  2.5008395E-01  1.0558153E+00  7.1286621E+01  5.7276149E-01  2.6359760E-01     0.0733269     0.0812773
         12    2.1711516E-01  2.7509234E-01  1.0534016E+00  7.1678123E+01  5.3683159E-01  2.7386415E-01     0.0705624     0.0894050
         13    2.0878919E-01  3.0010074E-01  1.0511869E+00  7.2046247E+01  5.0448937E-01  2.8197552E-01     0.0678565     0.0975327
         14    2.0063208E-01  3.2510913E-01  1.0491656E+00  7.2390097E+01  4.7551183E-01  2.8809194E-01     0.0652054     0.1056605
         15    1.9263220E-01  3.5011753E-01  1.0473324E+00  7.2708839E+01  4.4968888E-01  2.9236316E-01     0.0626055     0.1137882
         16    1.8477761E-01  3.7512592E-01  1.0456822E+00  7.3001714E+01  4.2682364E-01  2.9492821E-01     0.0600527     0.1219159
         17    1.7705608E-01  4.0013432E-01  1.0442096E+00  7.3268054E+01  4.0673255E-01  2.9591532E-01     0.0575432     0.1300437
         18    1.6945515E-01  4.2514271E-01  1.0429096E+00  7.3507297E+01  3.8924559E-01  2.9544178E-01     0.0550729     0.1381714
         19    1.6196216E-01  4.5015111E-01  1.0417770E+00  7.3718998E+01  3.7420634E-01  2.9361388E-01     0.0526377     0.1462991
         20    1.5456432E-01  4.7515950E-01  1.0408070E+00  7.3902844E+01  3.6147202E-01  2.9052694E-01     0.0502334     0.1544268

         21    1.4724879E-01  5.0016790E-01  1.0399947E+00  7.4058662E+01  3.5091343E-01  2.8626538E-01     0.0478559     0.1625546
         22    1.4000266E-01  5.2517629E-01  1.0393353E+00  7.4186419E+01  3.4241480E-01  2.8090282E-01     0.0455009     0.1706823
         23    1.3281311E-01  5.5018469E-01  1.0388243E+00  7.4286231E+01  3.3587362E-01  2.7450235E-01     0.0431643     0.1788100
         24    1.2566742E-01  5.7519308E-01  1.0384573E+00  7.4358356E+01  3.3120036E-01  2.6711676E-01     0.0408419     0.1869378
         25    1.1855301E-01  6.0020148E-01  1.0382302E+00  7.4403185E+01  3.2831807E-01  2.5878885E-01     0.0385297     0.1950655
         26    1.1145756E-01  6.2520987E-01  1.0381389E+00  7.4421241E+01  3.2716203E-01  2.4955186E-01     0.0362237     0.2031932
         27    1.0436900E-01  6.5021827E-01  1.0381798E+00  7.4413157E+01  3.2767926E-01  2.3942985E-01     0.0339199     0.2113209
         28    9.7275587E-02  6.7522666E-01  1.0383493E+00  7.4379666E+01  3.2982806E-01  2.2843812E-01     0.0316146     0.2194487
         29    9.0165930E-02  7.0023506E-01  1.0386442E+00  7.4321583E+01  3.3357748E-01  2.1658371E-01     0.0293039     0.2275764
         30    8.3029030E-02  7.2524345E-01  1.0390616E+00  7.4239784E+01  3.3890682E-01  2.0386578E-01     0.0269844     0.2357041

         31    7.5854297E-02  7.5025185E-01  1.0395989E+00  7.4135196E+01  3.4580515E-01  1.9027609E-01     0.0246526     0.2438319
         32    6.8631564E-02  7.7526024E-01  1.0402538E+00  7.4008772E+01  3.5427082E-01  1.7579939E-01     0.0223053     0.2519596
         33    6.1351099E-02  8.0026864E-01  1.0410242E+00  7.3861479E+01  3.6431100E-01  1.6041376E-01     0.0199391     0.2600873
         34    5.4003601E-02  8.2527703E-01  1.0419084E+00  7.3694282E+01  3.7594132E-01  1.4409099E-01     0.0175512     0.2682150
         35    4.6580201E-02  8.5028543E-01  1.0429051E+00  7.3508131E+01  3.8918550E-01  1.2679683E-01     0.0151386     0.2763428
         36    3.9072447E-02  8.7529382E-01  1.0440132E+00  7.3303953E+01  4.0407503E-01  1.0849120E-01     0.0126985     0.2844705
         37    3.1472296E-02  9.0030222E-01  1.0452319E+00  7.3082640E+01  4.2064896E-01  8.9128420E-02     0.0102285     0.2925982
         38    2.3772091E-02  9.2531061E-01  1.0465609E+00  7.2845041E+01  4.3895372E-01  6.8657277E-02     0.0077259     0.3007259
         39    1.5964545E-02  9.5031901E-01  1.0480001E+00  7.2591963E+01  4.5904297E-01  4.7021123E-02     0.0051885     0.3088537
         40    8.0427195E-03  9.7532740E-01  1.0495497E+00  7.2324161E+01  4.8097756E-01  2.4157878E-02     0.0026139     0.3169814

         41    0.0000000E+00  1.0003358E+00  1.0512101E+00  7.2042338E+01  5.0482550E-01  0.0000000E+00     0.0000000     0.3251091
1  MACH 6  0  INVISCID CONTOUR

  CHARACT   1
        POINT        X              Y          MACH NO.     MACH ANG.(D)      PSI (D)      FLOW ANG.(D)       X(IN)         Y(IN)

          1    1.5921215E+01  0.0000000E+00  6.0000000E+00  9.5940682E+00  8.4955498E+01  0.0000000E+00     5.1743949     0.0000000
          2    1.6820021E+01  1.5192598E-01  6.0000000E+00  9.5940682E+00  8.4955498E+01  0.0000000E+00     5.4665069     0.0493759
          3    1.7718828E+01  3.0385196E-01  6.0000000E+00  9.5940682E+00  8.4955498E+01  0.0000000E+00     5.7586189     0.0987519
          4    1.8617634E+01  4.5577794E-01  6.0000000E+00  9.5940682E+00  8.4955498E+01  0.0000000E+00     6.0507310     0.1481278
          5    1.9516440E+01  6.0770392E-01  6.0000000E+00  9.5940682E+00  8.4955498E+01  0.0000000E+00     6.3428430     0.1975038
          6    2.0415246E+01  7.5962990E-01  6.0000000E+00  9.5940682E+00  8.4955498E+01  0.0000000E+00     6.6349550     0.2468797
          7    2.1314052E+01  9.1155588E-01  6.0000000E+00  9.5940682E+00  8.4955498E+01  0.0000000E+00     6.9270670     0.2962557
          8    2.2212859E+01  1.0634819E+00  6.0000000E+00  9.5940682E+00  8.4955498E+01  0.0000000E+00     7.2191790     0.3456316
          9    2.3111665E+01  1.2154078E+00  6.0000000E+00  9.5940682E+00  8.4955498E+01  0.0000000E+00     7.5112911     0.3950075
         10    2.4010471E+01  1.3673338E+00  6.0000000E+00  9.5940682E+00  8.4955498E+01  0.0000000E+00     7.8034031     0.4443835

         11    2.4909277E+01  1.5192598E+00  6.0000000E+00  9.5940682E+00  8.4955498E+01  0.0000000E+00     8.0955151     0.4937594
         12    2.5808083E+01  1.6711858E+00  6.0000000E+00  9.5940682E+00  8.4955498E+01  0.0000000E+00     8.3876271     0.5431354
         13    2.6706890E+01  1.8231118E+00  6.0000000E+00  9.5940682E+00  8.4955498E+01  0.0000000E+00     8.6797392     0.5925113
         14    2.7605696E+01  1.9750377E+00  6.0000000E+00  9.5940682E+00  8.4955498E+01  0.0000000E+00     8.9718512     0.6418873
         15    2.8504502E+01  2.1269637E+00  6.0000000E+00  9.5940682E+00  8.4955498E+01  0.0000000E+00     9.2639632     0.6912632
         16    2.9403308E+01  2.2788897E+00  6.0000000E+00  9.5940682E+00  8.4955498E+01  0.0000000E+00     9.5560752     0.7406392
         17    3.0302115E+01  2.4308157E+00  6.0000000E+00  9.5940682E+00  8.4955498E+01  0.0000000E+00     9.8481872     0.7900151
         18    3.1200921E+01  2.5827417E+00  6.0000000E+00  9.5940682E+00  8.4955498E+01  0.0000000E+00    10.1402993     0.8393910
         19    3.2099727E+01  2.7346676E+00  6.0000000E+00  9.5940682E+00  8.4955498E+01  0.0000000E+00    10.4324113     0.8887670
         20    3.2998533E+01  2.8865936E+00  6.0000000E+00  9.5940682E+00  8.4955498E+01  0.0000000E+00    10.7245233     0.9381429

