           Mach 4.5   THROAT VELOCITY DISTRIBUTION, X=O, RC=  6.000000

          DERIVATIVES TAKEN WITH RESPECT TO X/Y*, WOP= 0.34136118

          WOPP=  2.8328436E-03     WOPPP= -7.6881686E-02

          Y/YO       U/A*          V/A*           W           MACH NO.

         0.0000    0.96385164    0.00000000    0.96385164    0.95708127
         0.0227    0.96388554   -0.00032612    0.96388560    0.95712116
         0.0455    0.96398728   -0.00065147    0.96398750    0.95724089
         0.0682    0.96415691   -0.00097528    0.96415741    0.95744054
         0.0909    0.96439457   -0.00129676    0.96439544    0.95772027
         0.1136    0.96470042   -0.00161515    0.96470177    0.95808032
         0.1364    0.96507468   -0.00192964    0.96507661    0.95852097
         0.1591    0.96551762   -0.00223945    0.96552022    0.95904259
         0.1818    0.96602956   -0.00254375    0.96603291    0.95964562
         0.2045    0.96661088   -0.00284175    0.96661506    0.96033054

         0.2273    0.96726200   -0.00313259    0.96726707    0.96109794
         0.2500    0.96798341   -0.00341543    0.96798943    0.96194847
         0.2727    0.96877564   -0.00368939    0.96878266    0.96288284
         0.2955    0.96963929   -0.00395358    0.96964735    0.96390188
         0.3182    0.97057503   -0.00420707    0.97058415    0.96500647
         0.3409    0.97158358   -0.00444893    0.97159376    0.96619759
         0.3636    0.97266573   -0.00467817    0.97267698    0.96747630
         0.3864    0.97382233   -0.00489378    0.97383463    0.96884378
         0.4091    0.97505433   -0.00509470    0.97506764    0.97030128
         0.4318    0.97636271   -0.00527983    0.97637699    0.97185016

         0.4545    0.97774858   -0.00544804    0.97776376    0.97349191
         0.4773    0.97921309   -0.00559813    0.97922909    0.97522810
         0.5000    0.98075749   -0.00572885    0.98077422    0.97706044
         0.5227    0.98238312   -0.00583887    0.98240047    0.97899077
         0.5455    0.98409140   -0.00592683    0.98410925    0.98102105
         0.5682    0.98588388   -0.00599125    0.98590208    0.98315338
         0.5909    0.98776216   -0.00603061    0.98778057    0.98539001
         0.6136    0.98972800   -0.00604329    0.98974645    0.98773333
         0.6364    0.99178323   -0.00602755    0.99180154    0.99018592
         0.6591    0.99392981   -0.00598159    0.99394780    0.99275050

         0.6818    0.99616981   -0.00590345    0.99618731    0.99542999
         0.7045    0.99850546   -0.00579111    0.99852225    0.99822749
         0.7273    1.00093907   -0.00564236    1.00095497    1.00114630
         0.7500    1.00347313   -0.00545488    1.00348795    1.00418993
         0.7727    1.00611024   -0.00522622    1.00612381    1.00736213
         0.7955    1.00885316   -0.00495373    1.00886533    1.01066685
         0.8182    1.01170483   -0.00463462    1.01171544    1.01410833
         0.8409    1.01466830   -0.00426590    1.01467727    1.01769104
         0.8636    1.01774683   -0.00384438    1.01775409    1.02141974
         0.8864    1.02094383   -0.00336667    1.02094938    1.02529949

         0.9091    1.02426291   -0.00282915    1.02426681    1.02933565
         0.9318    1.02770784   -0.00222797    1.02771026    1.03353393
         0.9545    1.03128262   -0.00155902    1.03128380    1.03790036
         0.9773    1.03499143   -0.00081792    1.03499175    1.04244138
         1.0000    1.03883866   -0.00000000    1.03883866    1.04716380
          FROM CUBIC, X/Y* = 0.10589173 FOR W= 1.0

                      X/Y* = 0.30916405 FOR W= 1.06914498

          CORRECTED WOPPP= -7.5033231E-02

          RMASS = Y*/YO = 0.9997135747


          AXIAL VELOCITY DISTRIBUTION, Y=0

          X/Y*         W                 WP                WPP               M                 MP                MPP

         0.000     9.6385164E-01     3.4136118E-01     2.8328436E-03     9.5708127E-01     4.0106175E-01     8.1394664E-02
         0.100     9.9798942E-01     3.4126930E-01    -4.6704794E-03     9.9758876E-01     4.0903012E-01     7.7920331E-02
         0.200     1.0320805E+00     3.4042708E-01    -1.2173802E-02     1.0388752E+00     4.1663401E-01     7.4091422E-02
         0.300     1.0660498E+00     3.3883454E-01    -1.9677126E-02     1.0809021E+00     4.2383370E-01     6.9820989E-02
       0.30913716  1.0691450E+00     3.3865161E-01    -2.0362716E-02     1.0847776E+00     4.2446977E-01     6.9405507E-02
         0.400     1.0998224E+00     3.3649166E-01    -2.7180449E-02     1.1236268E+00     4.3058029E-01     6.5012734E-02
         0.500     1.1333231E+00     3.3339845E-01    -3.4683772E-02     1.1670011E+00     4.3681479E-01     5.9560535E-02
         0.600     1.1664771E+00     3.2955490E-01    -4.2187095E-02     1.2109704E+00     4.4246707E-01     5.3348148E-02
         0.700     1.1992091E+00     3.2496103E-01    -4.9690418E-02     1.2554724E+00     4.4745488E-01     4.6249172E-02
         0.800     1.2314443E+00     3.1961682E-01    -5.7193741E-02     1.3004360E+00     4.5168282E-01     3.8127370E-02
         0.900     1.2631075E+00     3.1352228E-01    -6.4697064E-02     1.3457800E+00     4.5504143E-01     2.8837498E-02
         1.000     1.2941237E+00     3.0667741E-01    -7.2200387E-02     1.3914112E+00     4.5740630E-01     1.8226785E-02
1  Mach 4.5   INVISCID CONTOUR, 4TH-DEGAXIAL MACH NUMBER DISTRIBUTION FROM THROAT CHARACTERISTIC WHICH HAS  45 POINTS

     NO. OF POINTS ON 1ST CHAR. (M)= 61     NO. OF POINTS ON AXIS (N)= 41     EPSI/ETA= 0.00000    BMACH=  4.50000    CMACH=  4.50000

     GAMMA= 1.4000     INFLECTION ANG. (ETA)= 60.0000  DEGREES     RAD. OF CURV. (RC)=   6.000000     SCALE FACTOR (SF)=   0.13000000

     Y*=1.00000000    RMASS=0.99971357    WWO= 1.0388387    WWOP= 0.39255278    EMACH= 4.50000    FMACH= 4.5000000    GMACH=  0.00000

          WI=  1.06914498    WIP=  0.33865161    WIPP= -2.0362716E-02    MI=  1.08477764    MIP=  0.42446977    MIPP=  6.9405507E-02

          C1=  1.0847776   C2=  5.13653642   C3=  5.0817249E+00   C4= -1.1912170E+01   C5=  5.1091307E+00   C6=  0.0000000E+00

          XOI=  0.10589746   XI=  0.30913716   XO=  0.00000000   YO=  1.00028651   XIE= 12.10106536   XE= 12.41020252    0 ITERATIONS

          MACH 0.95708127 AT 56.0654464 IN.,   MACH 1 AT 56.0792131 IN.,   MACH 1.08477764 AT 56.1056343 IN.

  AXIS
 POINT    X       X(IN)   MACH NO.    DM/DX        D2M/DX2       D3M/DX3       W=Q/A*     DW/DX        D2W/DX2       D3W/DX3

   1  12.41020  57.67877  4.500000  6.605704E-16  9.704496E-17  2.886303E-02  2.193600  6.376358E-17  9.367561E-18  2.786092E-03
   2  11.87111  57.60869  4.499266  4.044794E-03 -1.472894E-02  2.578035E-02  2.193529  3.905893E-04 -1.423158E-03  2.498734E-03
   3  11.34296  57.54003  4.494462  1.527901E-02 -2.754723E-02  2.276027E-02  2.193065  1.479229E-03 -2.679062E-03  2.269054E-03
   4  10.82582  57.47280  4.482369  3.243655E-02 -3.855292E-02  1.980311E-02  2.191890  3.160726E-03 -3.811670E-03  2.126790E-03
   5  10.31974  57.40701  4.460604  5.435989E-02 -4.784262E-02  1.690921E-02  2.189757  5.359249E-03 -4.873308E-03  2.086203E-03
   6   9.82478  57.34267  4.427511  7.999567E-02 -5.551153E-02  1.407891E-02  2.186465  8.028492E-03 -5.917959E-03  2.153503E-03
   7   9.34101  57.27978  4.382062  1.083902E-01 -6.165338E-02  1.131257E-02  2.181847  1.114926E-02 -6.998218E-03  2.331930E-03
   8   8.86849  57.21835  4.323776  1.386851E-01 -6.636043E-02  8.610572E-03  2.175756  1.472615E-02 -8.164435E-03  2.624807E-03
   9   8.40728  57.15839  4.252626  1.701130E-01 -6.972350E-02  5.973294E-03  2.168051  1.878422E-02 -9.464975E-03  3.037076E-03
  10   7.95747  57.09992  4.168972  2.019932E-01 -7.183187E-02  3.401137E-03  2.158596  2.336591E-02 -1.094684E-02  3.575732E-03

  11   7.51911  57.04293  4.073487  2.337275E-01 -7.277338E-02  8.945157E-04  2.147249  2.852837E-02 -1.265619E-02  4.249424E-03
  12   7.09230  56.98744  3.967096  2.647958E-01 -7.263432E-02 -1.546138E-03  2.133863  3.434086E-02 -1.463839E-02  5.067304E-03
  13   6.67709  56.93347  3.850917  2.947523E-01 -7.149946E-02 -3.920377E-03  2.118279  4.088211E-02 -1.693738E-02  6.037105E-03
  14   6.27359  56.88101  3.726211  3.232210E-01 -6.945205E-02 -6.227731E-03  2.100335  4.823719E-02 -1.959410E-02  7.162346E-03
  15   5.88186  56.83009  3.594337  3.498920E-01 -6.657377E-02 -8.467713E-03  2.079861  5.649366E-02 -2.264373E-02  8.438546E-03
  16   5.50201  56.78071  3.456708  3.745171E-01 -6.294474E-02 -1.063981E-02  2.056688  6.573666E-02 -2.611172E-02  9.848415E-03
  17   5.13412  56.73288  3.314761  3.969063E-01 -5.864352E-02 -1.274349E-02  2.030653  7.604263E-02 -3.000844E-02  1.135618E-02
  18   4.77830  56.68662  3.169919  4.169235E-01 -5.374706E-02 -1.477820E-02  2.001607  8.747164E-02 -3.432267E-02  1.290146E-02
  19   4.43464  56.64195  3.023568  4.344829E-01 -4.833072E-02 -1.674333E-02  1.969430  1.000584E-01 -3.901439E-02  1.439369E-02
  20   4.10325  56.59887  2.877038  4.495449E-01 -4.246825E-02 -1.863828E-02  1.934040  1.138025E-01 -4.400765E-02  1.570836E-02

  21   3.78426  56.55740  2.731578  4.621128E-01 -3.623179E-02 -2.046237E-02  1.895412  1.286581E-01 -4.918492E-02  1.668704E-02
  22   3.47777  56.51756  2.588346  4.722288E-01 -2.969183E-02 -2.221493E-02  1.853590  1.445257E-01 -5.438453E-02  1.714308E-02
  23   3.18393  56.47936  2.448398  4.799704E-01 -2.291723E-02 -2.389521E-02  1.808701  1.612455E-01 -5.940299E-02  1.687461E-02
  24   2.90286  56.44282  2.312679  4.854466E-01 -1.597523E-02 -2.550242E-02  1.760973  1.785961E-01 -6.400367E-02  1.568502E-02
  25   2.63472  56.40796  2.182020  4.887951E-01 -8.931388E-03 -2.703572E-02  1.710734  1.962985E-01 -6.793260E-02  1.340942E-02
  26   2.37966  56.37480  2.057133  4.901779E-01 -1.849670E-03 -2.849422E-02  1.658421  2.140277E-01 -7.094042E-02  9.942998E-03
  27   2.13785  56.34337  1.938619  4.897786E-01  5.207605E-03 -2.987693E-02  1.604573  2.314302E-01 -7.280838E-02  5.265583E-03
  28   1.90948  56.31368  1.826963  4.877989E-01  1.217972E-02 -3.118281E-02  1.549815  2.481473E-01 -7.337426E-02 -5.439165E-04
  29   1.69475  56.28576  1.722550  4.844552E-01  1.900751E-02 -3.241071E-02  1.494842  2.638411E-01 -7.255398E-02 -7.307793E-03
  30   1.49388  56.25965  1.625663  4.799755E-01  2.563336E-02 -3.355936E-02  1.440391  2.782195E-01 -7.035476E-02 -1.476592E-02

  31   1.30710  56.23537  1.536501  4.745963E-01  3.200107E-02 -3.462737E-02  1.387218  2.910579E-01 -6.687747E-02 -2.260535E-02
  32   1.13470  56.21296  1.455186  4.685599E-01  3.805577E-02 -3.561320E-02  1.336067  3.022132E-01 -6.230806E-02 -3.049695E-02
  33   0.97699  56.19245  1.381782  4.621111E-01  4.374376E-02 -3.651507E-02  1.287649  3.116297E-01 -5.690030E-02 -3.813114E-02
  34   0.83430  56.17391  1.316308  4.554949E-01  4.901221E-02 -3.733100E-02  1.242623  3.193365E-01 -5.095339E-02 -4.524615E-02
  35   0.70705  56.15736  1.258757  4.489540E-01  5.380879E-02 -3.805863E-02  1.201592  3.254366E-01 -4.478878E-02 -5.164428E-02
  36   0.59573  56.14289  1.209120  4.427268E-01  5.808100E-02 -3.869520E-02  1.165098  3.300911E-01 -3.872985E-02 -5.719541E-02
  37   0.50093  56.13057  1.167416  4.370459E-01  6.177506E-02 -3.923730E-02  1.133639  3.334987E-01 -3.308711E-02 -6.182922E-02
  38   0.42341  56.12049  1.133725  4.321389E-01  6.483386E-02 -3.968057E-02  1.107693  3.358741E-01 -2.815051E-02 -6.551892E-02
  39   0.36421  56.11279  1.108260  4.282314E-01  6.719271E-02 -4.001906E-02  1.087764  3.374241E-01 -2.419076E-02 -6.825868E-02
  40   0.32495  56.10769  1.091500  4.255625E-01  6.876827E-02 -4.024356E-02  1.074499  3.383207E-01 -2.147597E-02 -7.003243E-02

  41   0.30914  56.10563  1.084778  4.244698E-01  6.940551E-02 -4.033400E-02  1.069145  3.386516E-01 -2.036272E-02 -7.073633E-02
   Mach 4.5   THROAT CHARACTERISTIC
             
        POINT        X              Y          MACH NO.      MACH ANG.(D)     PSI (D)     FLOW ANG.(D)        X(IN)         Y(IN)

          1    3.0913716E-01  0.0000000E+00  1.0847776E+00  6.7197746E+01  1.0529038E+00  0.0000000E+00    56.1056343     0.0000000
          2    2.9968938E-01  2.2733784E-02  1.0808196E+00  6.7702118E+01  9.8245330E-01  3.4811254E-02    56.1044060     0.0029554
          3    2.9045753E-01  4.5467569E-02  1.0770581E+00  6.8195247E+01  9.1681691E-01  6.6427763E-02    56.1032059     0.0059108
          4    2.8143631E-01  6.8201353E-02  1.0734886E+00  6.8676517E+01  8.5576299E-01  9.5024047E-02    56.1020331     0.0088662
          5    2.7262016E-01  9.0935137E-02  1.0701068E+00  6.9145286E+01  7.9906689E-01  1.2076881E-01    56.1008870     0.0118216
          6    2.6400330E-01  1.1366892E-01  1.0669086E+00  6.9600893E+01  7.4651091E-01  1.4382499E-01    56.0997668     0.0147770
          7    2.5557964E-01  1.3640271E-01  1.0638898E+00  7.0042658E+01  6.9788437E-01  1.6434976E-01    56.0986718     0.0177324
          8    2.4734286E-01  1.5913649E-01  1.0610463E+00  7.0469885E+01  6.5298359E-01  1.8249452E-01    56.0976010     0.0206877
          9    2.3928637E-01  1.8187027E-01  1.0583743E+00  7.0881870E+01  6.1161200E-01  1.9840486E-01    56.0965536     0.0236431
         10    2.3140329E-01  2.0460406E-01  1.0558697E+00  7.1277900E+01  5.7358019E-01  2.1222051E-01    56.0955288     0.0265985

         11    2.2368649E-01  2.2733784E-01  1.0535288E+00  7.1657260E+01  5.3870607E-01  2.2407524E-01    56.0945257     0.0295539
         12    2.1612856E-01  2.5007163E-01  1.0513475E+00  7.2019244E+01  5.0681496E-01  2.3409680E-01    56.0935431     0.0325093
         13    2.0872186E-01  2.7280541E-01  1.0493223E+00  7.2363158E+01  4.7773972E-01  2.4240679E-01    56.0925803     0.0354647
         14    2.0145844E-01  2.9553920E-01  1.0474492E+00  7.2688328E+01  4.5132091E-01  2.4912055E-01    56.0916360     0.0384201
         15    1.9433017E-01  3.1827298E-01  1.0457246E+00  7.2994111E+01  4.2740693E-01  2.5434708E-01    56.0907093     0.0413755
         16    1.8732865E-01  3.4100676E-01  1.0441447E+00  7.3279902E+01  4.0585415E-01  2.5818887E-01    56.0897991     0.0443309
         17    1.8044527E-01  3.6374055E-01  1.0427059E+00  7.3545146E+01  3.8652703E-01  2.6074190E-01    56.0889043     0.0472863
         18    1.7367127E-01  3.8647433E-01  1.0414044E+00  7.3789343E+01  3.6929826E-01  2.6209546E-01    56.0880237     0.0502417
         19    1.6699767E-01  4.0920812E-01  1.0402367E+00  7.4012062E+01  3.5404880E-01  2.6233217E-01    56.0871561     0.0531971
         20    1.6041539E-01  4.3194190E-01  1.0391991E+00  7.4212946E+01  3.4066795E-01  2.6152787E-01    56.0863004     0.0561524

         21    1.5391523E-01  4.5467569E-01  1.0382882E+00  7.4391723E+01  3.2905341E-01  2.5975170E-01    56.0854554     0.0591078
         22    1.4748792E-01  4.7740947E-01  1.0375005E+00  7.4548207E+01  3.1911120E-01  2.5706604E-01    56.0846199     0.0620632
         23    1.4112417E-01  5.0014325E-01  1.0368326E+00  7.4682307E+01  3.1075568E-01  2.5352664E-01    56.0837926     0.0650186
         24    1.3481466E-01  5.2287704E-01  1.0362811E+00  7.4794027E+01  3.0390939E-01  2.4918267E-01    56.0829723     0.0679740
         25    1.2855012E-01  5.4561082E-01  1.0358428E+00  7.4883468E+01  2.9850296E-01  2.4407688E-01    56.0821579     0.0709294
         26    1.2232136E-01  5.6834461E-01  1.0355147E+00  7.4950826E+01  2.9447491E-01  2.3824575E-01    56.0813482     0.0738848
         27    1.1611931E-01  5.9107839E-01  1.0352937E+00  7.4996385E+01  2.9177149E-01  2.3171969E-01    56.0805419     0.0768402
         28    1.0993502E-01  6.1381217E-01  1.0351769E+00  7.5020517E+01  2.9034637E-01  2.2452324E-01    56.0797380     0.0797956
         29    1.0375973E-01  6.3654596E-01  1.0351617E+00  7.5023671E+01  2.9016044E-01  2.1667534E-01    56.0789352     0.0827510
         30    9.7584884E-02  6.5927974E-01  1.0352454E+00  7.5006365E+01  2.9118151E-01  2.0818956E-01    56.0781325     0.0857064

         31    9.1402159E-02  6.8201353E-01  1.0354256E+00  7.4969175E+01  2.9338401E-01  1.9907434E-01    56.0773287     0.0886618
         32    8.5203476E-02  7.0474731E-01  1.0357001E+00  7.4912727E+01  2.9674869E-01  1.8933332E-01    56.0765229     0.0916172
         33    7.8981021E-02  7.2748110E-01  1.0360668E+00  7.4837682E+01  3.0126232E-01  1.7896553E-01    56.0757140     0.0945725
         34    7.2727262E-02  7.5021488E-01  1.0365238E+00  7.4744732E+01  3.0691743E-01  1.6796567E-01    56.0749010     0.0975279
         35    6.6434949E-02  7.7294866E-01  1.0370695E+00  7.4634583E+01  3.1371200E-01  1.5632434E-01    56.0740830     0.1004833
         36    6.0097126E-02  7.9568245E-01  1.0377023E+00  7.4507948E+01  3.2164920E-01  1.4402826E-01    56.0732590     0.1034387
         37    5.3707124E-02  8.1841623E-01  1.0384209E+00  7.4365542E+01  3.3073716E-01  1.3106048E-01    56.0724283     0.1063941
         38    4.7258563E-02  8.4115002E-01  1.0392241E+00  7.4208067E+01  3.4098878E-01  1.1740052E-01    56.0715900     0.1093495
         39    4.0745346E-02  8.6388380E-01  1.0401111E+00  7.4036213E+01  3.5242148E-01  1.0302455E-01    56.0707433     0.1123049
         40    3.4161648E-02  8.8661759E-01  1.0410811E+00  7.3850645E+01  3.6505709E-01  8.7905506E-02    56.0698874     0.1152603

         41    2.7501911E-02  9.0935137E-01  1.0421336E+00  7.3652006E+01  3.7892168E-01  7.2013171E-02    56.0690217     0.1182157
         42    2.0760830E-02  9.3208515E-01  1.0432682E+00  7.3440909E+01  3.9404549E-01  5.5314267E-02    56.0681453     0.1211711
         43    1.3933340E-02  9.5481894E-01  1.0444847E+00  7.3217934E+01  4.1046283E-01  3.7772484E-02    56.0672578     0.1241265
         44    7.0146040E-03  9.7755272E-01  1.0457832E+00  7.2983628E+01  4.2821204E-01  1.9348505E-02    56.0663583     0.1270819
         45    0.0000000E+00  1.0002865E+00  1.0471638E+00  7.2738506E+01  4.4733546E-01  0.0000000E+00    56.0654464     0.1300372
1  Mach 4.5   INVISCID CONTOUR

  CHARACT   1
        POINT        X              Y          MACH NO.     MACH ANG.(D)      PSI (D)      FLOW ANG.(D)       X(IN)         Y(IN)

          1    1.2410203E+01  0.0000000E+00  4.5000000E+00  1.2839588E+01  7.1831739E+01  0.0000000E+00    57.6787727     0.0000000
          2    1.2707796E+01  6.7827794E-02  4.5000000E+00  1.2839588E+01  7.1831739E+01  0.0000000E+00    57.7174599     0.0088176
          3    1.3005389E+01  1.3565559E-01  4.5000000E+00  1.2839588E+01  7.1831739E+01  0.0000000E+00    57.7561470     0.0176352
          4    1.3302982E+01  2.0348338E-01  4.5000000E+00  1.2839588E+01  7.1831739E+01  0.0000000E+00    57.7948341     0.0264528
          5    1.3600575E+01  2.7131117E-01  4.5000000E+00  1.2839588E+01  7.1831739E+01  0.0000000E+00    57.8335212     0.0352705
          6    1.3898169E+01  3.3913897E-01  4.5000000E+00  1.2839588E+01  7.1831739E+01  0.0000000E+00    57.8722084     0.0440881
          7    1.4195762E+01  4.0696676E-01  4.5000000E+00  1.2839588E+01  7.1831739E+01  0.0000000E+00    57.9108955     0.0529057
          8    1.4493355E+01  4.7479456E-01  4.5000000E+00  1.2839588E+01  7.1831739E+01  0.0000000E+00    57.9495826     0.0617233
          9    1.4790948E+01  5.4262235E-01  4.5000000E+00  1.2839588E+01  7.1831739E+01  0.0000000E+00    57.9882697     0.0705409
         10    1.5088542E+01  6.1045014E-01  4.5000000E+00  1.2839588E+01  7.1831739E+01  0.0000000E+00    58.0269568     0.0793585

         11    1.5386135E+01  6.7827794E-01  4.5000000E+00  1.2839588E+01  7.1831739E+01  0.0000000E+00    58.0656440     0.0881761
         12    1.5683728E+01  7.4610573E-01  4.5000000E+00  1.2839588E+01  7.1831739E+01  0.0000000E+00    58.1043311     0.0969937
         13    1.5981321E+01  8.1393352E-01  4.5000000E+00  1.2839588E+01  7.1831739E+01  0.0000000E+00    58.1430182     0.1058114
         14    1.6278915E+01  8.8176132E-01  4.5000000E+00  1.2839588E+01  7.1831739E+01  0.0000000E+00    58.1817053     0.1146290
