           Mach 5.3   THROAT VELOCITY DISTRIBUTION, X=O, RC=  6.000000

          DERIVATIVES TAKEN WITH RESPECT TO X/Y*, WOP= 0.34136118

          WOPP=  2.8328436E-03     WOPPP= -7.6881686E-02

          Y/YO       U/A*          V/A*           W           MACH NO.

         0.0000    0.96385164    0.00000000    0.96385164    0.95708127
         0.0227    0.96388554   -0.00032612    0.96388560    0.95712116
         0.0455    0.96398728   -0.00065147    0.96398750    0.95724089
         0.0682    0.96415691   -0.00097528    0.96415741    0.95744054
         0.0909    0.96439457   -0.00129676    0.96439544    0.95772027
         0.1136    0.96470042   -0.00161515    0.96470177    0.95808032
         0.1364    0.96507468   -0.00192964    0.96507661    0.95852097
         0.1591    0.96551762   -0.00223945    0.96552022    0.95904259
         0.1818    0.96602956   -0.00254375    0.96603291    0.95964562
         0.2045    0.96661088   -0.00284175    0.96661506    0.96033054

         0.2273    0.96726200   -0.00313259    0.96726707    0.96109794
         0.2500    0.96798341   -0.00341543    0.96798943    0.96194847
         0.2727    0.96877564   -0.00368939    0.96878266    0.96288284
         0.2955    0.96963929   -0.00395358    0.96964735    0.96390188
         0.3182    0.97057503   -0.00420707    0.97058415    0.96500647
         0.3409    0.97158358   -0.00444893    0.97159376    0.96619759
         0.3636    0.97266573   -0.00467817    0.97267698    0.96747630
         0.3864    0.97382233   -0.00489378    0.97383463    0.96884378
         0.4091    0.97505433   -0.00509470    0.97506764    0.97030128
         0.4318    0.97636271   -0.00527983    0.97637699    0.97185016

         0.4545    0.97774858   -0.00544804    0.97776376    0.97349191
         0.4773    0.97921309   -0.00559813    0.97922909    0.97522810
         0.5000    0.98075749   -0.00572885    0.98077422    0.97706044
         0.5227    0.98238312   -0.00583887    0.98240047    0.97899077
         0.5455    0.98409140   -0.00592683    0.98410925    0.98102105
         0.5682    0.98588388   -0.00599125    0.98590208    0.98315338
         0.5909    0.98776216   -0.00603061    0.98778057    0.98539001
         0.6136    0.98972800   -0.00604329    0.98974645    0.98773333
         0.6364    0.99178323   -0.00602755    0.99180154    0.99018592
         0.6591    0.99392981   -0.00598159    0.99394780    0.99275050

         0.6818    0.99616981   -0.00590345    0.99618731    0.99542999
         0.7045    0.99850546   -0.00579111    0.99852225    0.99822749
         0.7273    1.00093907   -0.00564236    1.00095497    1.00114630
         0.7500    1.00347313   -0.00545488    1.00348795    1.00418993
         0.7727    1.00611024   -0.00522622    1.00612381    1.00736213
         0.7955    1.00885316   -0.00495373    1.00886533    1.01066685
         0.8182    1.01170483   -0.00463462    1.01171544    1.01410833
         0.8409    1.01466830   -0.00426590    1.01467727    1.01769104
         0.8636    1.01774683   -0.00384438    1.01775409    1.02141974
         0.8864    1.02094383   -0.00336667    1.02094938    1.02529949

         0.9091    1.02426291   -0.00282915    1.02426681    1.02933565
         0.9318    1.02770784   -0.00222797    1.02771026    1.03353393
         0.9545    1.03128262   -0.00155902    1.03128380    1.03790036
         0.9773    1.03499143   -0.00081792    1.03499175    1.04244138
         1.0000    1.03883866   -0.00000000    1.03883866    1.04716380
          FROM CUBIC, X/Y* = 0.10589173 FOR W= 1.0

                      X/Y* = 0.30916405 FOR W= 1.06914498

          CORRECTED WOPPP= -7.5033231E-02

          RMASS = Y*/YO = 0.9997135747


          AXIAL VELOCITY DISTRIBUTION, Y=0

          X/Y*         W                 WP                WPP               M                 MP                MPP

         0.000     9.6385164E-01     3.4136118E-01     2.8328436E-03     9.5708127E-01     4.0106175E-01     8.1394664E-02
         0.100     9.9798942E-01     3.4126930E-01    -4.6704794E-03     9.9758876E-01     4.0903012E-01     7.7920331E-02
         0.200     1.0320805E+00     3.4042708E-01    -1.2173802E-02     1.0388752E+00     4.1663401E-01     7.4091422E-02
         0.300     1.0660498E+00     3.3883454E-01    -1.9677126E-02     1.0809021E+00     4.2383370E-01     6.9820989E-02
       0.30913716  1.0691450E+00     3.3865161E-01    -2.0362716E-02     1.0847776E+00     4.2446977E-01     6.9405507E-02
         0.400     1.0998224E+00     3.3649166E-01    -2.7180449E-02     1.1236268E+00     4.3058029E-01     6.5012734E-02
         0.500     1.1333231E+00     3.3339845E-01    -3.4683772E-02     1.1670011E+00     4.3681479E-01     5.9560535E-02
         0.600     1.1664771E+00     3.2955490E-01    -4.2187095E-02     1.2109704E+00     4.4246707E-01     5.3348148E-02
         0.700     1.1992091E+00     3.2496103E-01    -4.9690418E-02     1.2554724E+00     4.4745488E-01     4.6249172E-02
         0.800     1.2314443E+00     3.1961682E-01    -5.7193741E-02     1.3004360E+00     4.5168282E-01     3.8127370E-02
         0.900     1.2631075E+00     3.1352228E-01    -6.4697064E-02     1.3457800E+00     4.5504143E-01     2.8837498E-02
         1.000     1.2941237E+00     3.0667741E-01    -7.2200387E-02     1.3914112E+00     4.5740630E-01     1.8226785E-02
1  Mach 5.3   INVISCID CONTOUR, 4TH-DEGAXIAL MACH NUMBER DISTRIBUTION FROM THROAT CHARACTERISTIC WHICH HAS  45 POINTS

     NO. OF POINTS ON 1ST CHAR. (M)= 61     NO. OF POINTS ON AXIS (N)= 41     EPSI/ETA= 0.00000    BMACH=  5.30000    CMACH=  5.30000

     GAMMA= 1.4000     INFLECTION ANG. (ETA)= 60.0000  DEGREES     RAD. OF CURV. (RC)=   6.000000     SCALE FACTOR (SF)=   0.13000000

     Y*=1.00000000    RMASS=0.99971357    WWO= 1.0388387    WWOP= 0.39255278    EMACH= 5.30000    FMACH= 5.3000000    GMACH=  0.00000

          WI=  1.06914498    WIP=  0.33865161    WIPP= -2.0362716E-02    MI=  1.08477764    MIP=  0.42446977    MIPP=  6.9405507E-02

          C1=  1.0847776   C2=  6.06714775   C3=  7.0898909E+00   C4= -1.5520336E+01   C5=  6.5785193E+00   C6=  0.0000000E+00

          XOI=  0.10589746   XI=  0.30913716   XO=  0.00000000   YO=  1.00028651   XIE= 14.29347435   XE= 14.60261152    0 ITERATIONS

          MACH 0.95708127 AT 54.2951398 IN.,   MACH 1 AT 54.3089065 IN.,   MACH 1.08477764 AT 54.3353276 IN.

  AXIS
 POINT    X       X(IN)   MACH NO.    DM/DX        D2M/DX2       D3M/DX3       W=Q/A*     DW/DX        D2W/DX2       D3W/DX3

   1  14.60261  56.19348  5.300000  3.106937E-16  3.477880E-17  2.217736E-02  2.256852  1.999093E-17  2.237768E-18  1.426955E-03
   2  13.96585  56.11070  5.299072  4.333333E-03 -1.335488E-02  1.976875E-02  2.256792  2.789435E-04 -8.602555E-04  1.277918E-03
   3  13.34201  56.02960  5.292994  1.635819E-02 -2.495126E-02  1.740905E-02  2.256401  1.056084E-03 -1.619161E-03  1.162031E-03
   4  12.73118  55.95019  5.277707  3.470351E-02 -3.487967E-02  1.509851E-02  2.255410  2.257006E-03 -2.306210E-03  1.096579E-03
   5  12.13341  55.87248  5.250213  5.811645E-02 -4.322930E-02  1.283739E-02  2.253610  3.830217E-03 -2.956730E-03  1.090168E-03
   6  11.54877  55.79648  5.208440  8.545760E-02 -5.008802E-02  1.062598E-02  2.250829  5.747433E-03 -3.607535E-03  1.147302E-03
   7  10.97735  55.72220  5.151116  1.156960E-01 -5.554237E-02  8.464536E-03  2.246919  8.001945E-03 -4.295193E-03  1.271527E-03
   8  10.41922  55.64964  5.077662  1.479047E-01 -5.967753E-02  6.353363E-03  2.241746  1.060641E-02 -5.055843E-03  1.467371E-03
   9   9.87446  55.57882  4.988077  1.812555E-01 -6.257732E-02  4.292759E-03  2.235177  1.359084E-02 -5.925817E-03  1.741434E-03
  10   9.34315  55.50975  4.882847  2.150148E-01 -6.432422E-02  2.283037E-03  2.227074  1.700089E-02 -6.942564E-03  2.102889E-03

  11   8.82538  55.44244  4.762854  2.485387E-01 -6.499928E-02  3.245207E-04  2.217289  2.089671E-02 -8.145552E-03  2.563558E-03
  12   8.32123  55.37690  4.629297  2.812683E-01 -6.468219E-02 -1.582453E-03  2.205662  2.535192E-02 -9.576918E-03  3.137575E-03
  13   7.83081  55.31314  4.483617  3.127255E-01 -6.345122E-02 -3.437534E-03  2.192012  3.045265E-02 -1.128165E-02  3.840558E-03
  14   7.35420  55.25119  4.327432  3.425084E-01 -6.138323E-02 -5.240356E-03  2.176143  3.629625E-02 -1.330707E-02  4.688105E-03
  15   6.89150  55.19103  4.162478  3.702867E-01 -5.855364E-02 -6.990537E-03  2.157844  4.298935E-02 -1.570135E-02  5.693369E-03
  16   6.44283  55.13271  3.990559  3.957976E-01 -5.503644E-02 -8.687679E-03  2.136885  5.064474E-02 -1.851074E-02  6.863415E-03
  17   6.00829  55.07622  3.813497  4.188412E-01 -5.090417E-02 -1.033136E-02  2.113032  5.937673E-02 -2.177516E-02  8.194117E-03
  18   5.58799  55.02158  3.633098  4.392766E-01 -4.622789E-02 -1.192115E-02  2.086047  6.929439E-02 -2.552190E-02  9.663519E-03
  19   5.18207  54.96881  3.451114  4.570172E-01 -4.107720E-02 -1.345659E-02  2.055705  8.049250E-02 -2.975743E-02  1.122393E-02
  20   4.79065  54.91792  3.269218  4.720271E-01 -3.552020E-02 -1.493718E-02  2.021802  9.304004E-02 -3.445749E-02  1.279367E-02

  21   4.41386  54.86894  3.088979  4.843167E-01 -2.962353E-02 -1.636241E-02  1.984182  1.069666E-01 -3.955652E-02  1.425007E-02
  22   4.05185  54.82188  2.911841  4.939387E-01 -2.345229E-02 -1.773175E-02  1.942752  1.222477E-01 -4.493804E-02  1.542640E-02
  23   3.70477  54.77676  2.739118  5.009841E-01 -1.707009E-02 -1.904461E-02  1.897507  1.387907E-01 -5.042840E-02  1.611582E-02
  24   3.37278  54.73360  2.571974  5.055786E-01 -1.053905E-02 -2.030039E-02  1.848552  1.564237E-01 -5.579686E-02  1.608522E-02
  25   3.05606  54.69243  2.411426  5.078783E-01 -3.919737E-03 -2.149842E-02  1.796126  1.748908E-01 -6.076480E-02  1.510040E-02
  26   2.75479  54.65326  2.258339  5.080664E-01  2.728747E-03 -2.263799E-02  1.740612  1.938553E-01 -6.502561E-02  1.296101E-02
  27   2.46917  54.61613  2.113428  5.063489E-01  9.348811E-03 -2.371836E-02  1.682544  2.129149E-01 -6.827465E-02  9.539513E-03
  28   2.19942  54.58107  1.977261  5.029519E-01  1.588434E-02 -2.473869E-02  1.622600  2.316261E-01 -7.024565E-02  4.815316E-03
  29   1.94579  54.54809  1.850273  4.981170E-01  2.228064E-02 -2.569809E-02  1.561582  2.495384E-01 -7.074740E-02 -1.105945E-03
  30   1.70852  54.51725  1.732771  4.920987E-01  2.848444E-02 -2.659558E-02  1.500390  2.662317E-01 -6.969337E-02 -7.995398E-03

  31   1.48791  54.48857  1.624949  4.851608E-01  3.444377E-02 -2.743006E-02  1.439978  2.813533E-01 -6.711765E-02 -1.552753E-02
  32   1.28428  54.46210  1.526907  4.775728E-01  4.010787E-02 -2.820032E-02  1.381318  2.946461E-01 -6.317421E-02 -2.332468E-02
  33   1.09798  54.43788  1.438665  4.696076E-01  4.542704E-02 -2.890499E-02  1.325358  3.059665E-01 -5.811997E-02 -3.100830E-02
  34   0.92944  54.41597  1.360187  4.615378E-01  5.035238E-02 -2.954250E-02  1.272991  3.152875E-01 -5.228660E-02 -3.824479E-02
  35   0.77914  54.39643  1.291402  4.536339E-01  5.483539E-02 -3.011103E-02  1.225035  3.226897E-01 -4.604745E-02 -4.477645E-02
  36   0.64765  54.37933  1.232239  4.461618E-01  5.882743E-02 -3.060840E-02  1.182224  3.283411E-01 -3.978663E-02 -5.043334E-02
  37   0.53567  54.36478  1.182655  4.393817E-01  6.227858E-02 -3.103196E-02  1.145220  3.324702E-01 -3.387504E-02 -5.512743E-02
  38   0.44411  54.35287  1.142689  4.335487E-01  6.513582E-02 -3.137831E-02  1.114643  3.353356E-01 -2.865669E-02 -5.883311E-02
  39   0.37419  54.34378  1.112537  4.289177E-01  6.733897E-02 -3.164278E-02  1.091130  3.371932E-01 -2.444734E-02 -6.155863E-02
  40   0.32782  54.33776  1.092720  4.257609E-01  6.881041E-02 -3.181819E-02  1.075468  3.382601E-01 -2.155192E-02 -6.330812E-02

  41   0.30914  54.33533  1.084778  4.244698E-01  6.940551E-02 -3.188886E-02  1.069145  3.386516E-01 -2.036272E-02 -6.399860E-02
   Mach 5.3   THROAT CHARACTERISTIC
             
        POINT        X              Y          MACH NO.      MACH ANG.(D)     PSI (D)     FLOW ANG.(D)        X(IN)         Y(IN)

          1    3.0913716E-01  0.0000000E+00  1.0847776E+00  6.7197746E+01  1.0529038E+00  0.0000000E+00    54.3353276     0.0000000
          2    2.9968938E-01  2.2733784E-02  1.0808196E+00  6.7702118E+01  9.8245330E-01  3.4811254E-02    54.3340994     0.0029554
          3    2.9045753E-01  4.5467569E-02  1.0770581E+00  6.8195247E+01  9.1681691E-01  6.6427763E-02    54.3328993     0.0059108
          4    2.8143631E-01  6.8201353E-02  1.0734886E+00  6.8676517E+01  8.5576299E-01  9.5024047E-02    54.3317265     0.0088662
          5    2.7262016E-01  9.0935137E-02  1.0701068E+00  6.9145286E+01  7.9906689E-01  1.2076881E-01    54.3305804     0.0118216
          6    2.6400330E-01  1.1366892E-01  1.0669086E+00  6.9600893E+01  7.4651091E-01  1.4382499E-01    54.3294602     0.0147770
          7    2.5557964E-01  1.3640271E-01  1.0638898E+00  7.0042658E+01  6.9788437E-01  1.6434976E-01    54.3283652     0.0177324
          8    2.4734286E-01  1.5913649E-01  1.0610463E+00  7.0469885E+01  6.5298359E-01  1.8249452E-01    54.3272944     0.0206877
          9    2.3928637E-01  1.8187027E-01  1.0583743E+00  7.0881870E+01  6.1161200E-01  1.9840486E-01    54.3262470     0.0236431
         10    2.3140329E-01  2.0460406E-01  1.0558697E+00  7.1277900E+01  5.7358019E-01  2.1222051E-01    54.3252222     0.0265985

         11    2.2368649E-01  2.2733784E-01  1.0535288E+00  7.1657260E+01  5.3870607E-01  2.2407524E-01    54.3242191     0.0295539
         12    2.1612856E-01  2.5007163E-01  1.0513475E+00  7.2019244E+01  5.0681496E-01  2.3409680E-01    54.3232365     0.0325093
         13    2.0872186E-01  2.7280541E-01  1.0493223E+00  7.2363158E+01  4.7773972E-01  2.4240679E-01    54.3222736     0.0354647
         14    2.0145844E-01  2.9553920E-01  1.0474492E+00  7.2688328E+01  4.5132091E-01  2.4912055E-01    54.3213294     0.0384201
         15    1.9433017E-01  3.1827298E-01  1.0457246E+00  7.2994111E+01  4.2740693E-01  2.5434708E-01    54.3204027     0.0413755
         16    1.8732865E-01  3.4100676E-01  1.0441447E+00  7.3279902E+01  4.0585415E-01  2.5818887E-01    54.3194925     0.0443309
         17    1.8044527E-01  3.6374055E-01  1.0427059E+00  7.3545146E+01  3.8652703E-01  2.6074190E-01    54.3185977     0.0472863
         18    1.7367127E-01  3.8647433E-01  1.0414044E+00  7.3789343E+01  3.6929826E-01  2.6209546E-01    54.3177171     0.0502417
         19    1.6699767E-01  4.0920812E-01  1.0402367E+00  7.4012062E+01  3.5404880E-01  2.6233217E-01    54.3168495     0.0531971
         20    1.6041539E-01  4.3194190E-01  1.0391991E+00  7.4212946E+01  3.4066795E-01  2.6152787E-01    54.3159938     0.0561524

         21    1.5391523E-01  4.5467569E-01  1.0382882E+00  7.4391723E+01  3.2905341E-01  2.5975170E-01    54.3151488     0.0591078
         22    1.4748792E-01  4.7740947E-01  1.0375005E+00  7.4548207E+01  3.1911120E-01  2.5706604E-01    54.3143132     0.0620632
         23    1.4112417E-01  5.0014325E-01  1.0368326E+00  7.4682307E+01  3.1075568E-01  2.5352664E-01    54.3134860     0.0650186
         24    1.3481466E-01  5.2287704E-01  1.0362811E+00  7.4794027E+01  3.0390939E-01  2.4918267E-01    54.3126657     0.0679740
         25    1.2855012E-01  5.4561082E-01  1.0358428E+00  7.4883468E+01  2.9850296E-01  2.4407688E-01    54.3118513     0.0709294
         26    1.2232136E-01  5.6834461E-01  1.0355147E+00  7.4950826E+01  2.9447491E-01  2.3824575E-01    54.3110416     0.0738848
         27    1.1611931E-01  5.9107839E-01  1.0352937E+00  7.4996385E+01  2.9177149E-01  2.3171969E-01    54.3102353     0.0768402
         28    1.0993502E-01  6.1381217E-01  1.0351769E+00  7.5020517E+01  2.9034637E-01  2.2452324E-01    54.3094314     0.0797956
         29    1.0375973E-01  6.3654596E-01  1.0351617E+00  7.5023671E+01  2.9016044E-01  2.1667534E-01    54.3086286     0.0827510
         30    9.7584884E-02  6.5927974E-01  1.0352454E+00  7.5006365E+01  2.9118151E-01  2.0818956E-01    54.3078258     0.0857064

         31    9.1402159E-02  6.8201353E-01  1.0354256E+00  7.4969175E+01  2.9338401E-01  1.9907434E-01    54.3070221     0.0886618
         32    8.5203476E-02  7.0474731E-01  1.0357001E+00  7.4912727E+01  2.9674869E-01  1.8933332E-01    54.3062163     0.0916172
         33    7.8981021E-02  7.2748110E-01  1.0360668E+00  7.4837682E+01  3.0126232E-01  1.7896553E-01    54.3054073     0.0945725
         34    7.2727262E-02  7.5021488E-01  1.0365238E+00  7.4744732E+01  3.0691743E-01  1.6796567E-01    54.3045944     0.0975279
         35    6.6434949E-02  7.7294866E-01  1.0370695E+00  7.4634583E+01  3.1371200E-01  1.5632434E-01    54.3037764     0.1004833
         36    6.0097126E-02  7.9568245E-01  1.0377023E+00  7.4507948E+01  3.2164920E-01  1.4402826E-01    54.3029524     0.1034387
         37    5.3707124E-02  8.1841623E-01  1.0384209E+00  7.4365542E+01  3.3073716E-01  1.3106048E-01    54.3021217     0.1063941
         38    4.7258563E-02  8.4115002E-01  1.0392241E+00  7.4208067E+01  3.4098878E-01  1.1740052E-01    54.3012834     0.1093495
         39    4.0745346E-02  8.6388380E-01  1.0401111E+00  7.4036213E+01  3.5242148E-01  1.0302455E-01    54.3004367     0.1123049
         40    3.4161648E-02  8.8661759E-01  1.0410811E+00  7.3850645E+01  3.6505709E-01  8.7905506E-02    54.2995808     0.1152603

         41    2.7501911E-02  9.0935137E-01  1.0421336E+00  7.3652006E+01  3.7892168E-01  7.2013171E-02    54.2987151     0.1182157
         42    2.0760830E-02  9.3208515E-01  1.0432682E+00  7.3440909E+01  3.9404549E-01  5.5314267E-02    54.2978387     0.1211711
         43    1.3933340E-02  9.5481894E-01  1.0444847E+00  7.3217934E+01  4.1046283E-01  3.7772484E-02    54.2969511     0.1241265
         44    7.0146040E-03  9.7755272E-01  1.0457832E+00  7.2983628E+01  4.2821204E-01  1.9348505E-02    54.2960517     0.1270819
         45    0.0000000E+00  1.0002865E+00  1.0471638E+00  7.2738506E+01  4.4733546E-01  0.0000000E+00    54.2951398     0.1300372
1  Mach 5.3   INVISCID CONTOUR

  CHARACT   1
        POINT        X              Y          MACH NO.     MACH ANG.(D)      PSI (D)      FLOW ANG.(D)       X(IN)         Y(IN)

          1    1.4602612E+01  0.0000000E+00  5.3000000E+00  1.0875716E+01  7.9596157E+01  0.0000000E+00    56.1934793     0.0000000
          2    1.5090627E+01  9.3762481E-02  5.3000000E+00  1.0875716E+01  7.9596157E+01  0.0000000E+00    56.2569213     0.0121891
          3    1.5578642E+01  1.8752496E-01  5.3000000E+00  1.0875716E+01  7.9596157E+01  0.0000000E+00    56.3203633     0.0243782
          4    1.6066658E+01  2.8128744E-01  5.3000000E+00  1.0875716E+01  7.9596157E+01  0.0000000E+00    56.3838053     0.0365674
          5    1.6554673E+01  3.7504992E-01  5.3000000E+00  1.0875716E+01  7.9596157E+01  0.0000000E+00    56.4472474     0.0487565
          6    1.7042689E+01  4.6881240E-01  5.3000000E+00  1.0875716E+01  7.9596157E+01  0.0000000E+00    56.5106894     0.0609456
          7    1.7530704E+01  5.6257489E-01  5.3000000E+00  1.0875716E+01  7.9596157E+01  0.0000000E+00    56.5741314     0.0731347
          8    1.8018720E+01  6.5633737E-01  5.3000000E+00  1.0875716E+01  7.9596157E+01  0.0000000E+00    56.6375734     0.0853239
          9    1.8506735E+01  7.5009985E-01  5.3000000E+00  1.0875716E+01  7.9596157E+01  0.0000000E+00    56.7010154     0.0975130
         10    1.8994751E+01  8.4386233E-01  5.3000000E+00  1.0875716E+01  7.9596157E+01  0.0000000E+00    56.7644574     0.1097021

         11    1.9482766E+01  9.3762481E-01  5.3000000E+00  1.0875716E+01  7.9596157E+01  0.0000000E+00    56.8278994     0.1218912
         12    1.9970782E+01  1.0313873E+00  5.3000000E+00  1.0875716E+01  7.9596157E+01  0.0000000E+00    56.8913414     0.1340803
         13    2.0458797E+01  1.1251498E+00  5.3000000E+00  1.0875716E+01  7.9596157E+01  0.0000000E+00    56.9547834     0.1462695
         14    2.0946813E+01  1.2189123E+00  5.3000000E+00  1.0875716E+01  7.9596157E+01  0.0000000E+00    57.0182255     0.1584586
