           Mach 5.5   THROAT VELOCITY DISTRIBUTION, X=O, RC=  6.000000

          DERIVATIVES TAKEN WITH RESPECT TO X/Y*, WOP= 0.34136118

          WOPP=  2.8328436E-03     WOPPP= -7.6881686E-02

          Y/YO       U/A*          V/A*           W           MACH NO.

         0.0000    0.96385164    0.00000000    0.96385164    0.95708127
         0.0227    0.96388554   -0.00032612    0.96388560    0.95712116
         0.0455    0.96398728   -0.00065147    0.96398750    0.95724089
         0.0682    0.96415691   -0.00097528    0.96415741    0.95744054
         0.0909    0.96439457   -0.00129676    0.96439544    0.95772027
         0.1136    0.96470042   -0.00161515    0.96470177    0.95808032
         0.1364    0.96507468   -0.00192964    0.96507661    0.95852097
         0.1591    0.96551762   -0.00223945    0.96552022    0.95904259
         0.1818    0.96602956   -0.00254375    0.96603291    0.95964562
         0.2045    0.96661088   -0.00284175    0.96661506    0.96033054

         0.2273    0.96726200   -0.00313259    0.96726707    0.96109794
         0.2500    0.96798341   -0.00341543    0.96798943    0.96194847
         0.2727    0.96877564   -0.00368939    0.96878266    0.96288284
         0.2955    0.96963929   -0.00395358    0.96964735    0.96390188
         0.3182    0.97057503   -0.00420707    0.97058415    0.96500647
         0.3409    0.97158358   -0.00444893    0.97159376    0.96619759
         0.3636    0.97266573   -0.00467817    0.97267698    0.96747630
         0.3864    0.97382233   -0.00489378    0.97383463    0.96884378
         0.4091    0.97505433   -0.00509470    0.97506764    0.97030128
         0.4318    0.97636271   -0.00527983    0.97637699    0.97185016

         0.4545    0.97774858   -0.00544804    0.97776376    0.97349191
         0.4773    0.97921309   -0.00559813    0.97922909    0.97522810
         0.5000    0.98075749   -0.00572885    0.98077422    0.97706044
         0.5227    0.98238312   -0.00583887    0.98240047    0.97899077
         0.5455    0.98409140   -0.00592683    0.98410925    0.98102105
         0.5682    0.98588388   -0.00599125    0.98590208    0.98315338
         0.5909    0.98776216   -0.00603061    0.98778057    0.98539001
         0.6136    0.98972800   -0.00604329    0.98974645    0.98773333
         0.6364    0.99178323   -0.00602755    0.99180154    0.99018592
         0.6591    0.99392981   -0.00598159    0.99394780    0.99275050

         0.6818    0.99616981   -0.00590345    0.99618731    0.99542999
         0.7045    0.99850546   -0.00579111    0.99852225    0.99822749
         0.7273    1.00093907   -0.00564236    1.00095497    1.00114630
         0.7500    1.00347313   -0.00545488    1.00348795    1.00418993
         0.7727    1.00611024   -0.00522622    1.00612381    1.00736213
         0.7955    1.00885316   -0.00495373    1.00886533    1.01066685
         0.8182    1.01170483   -0.00463462    1.01171544    1.01410833
         0.8409    1.01466830   -0.00426590    1.01467727    1.01769104
         0.8636    1.01774683   -0.00384438    1.01775409    1.02141974
         0.8864    1.02094383   -0.00336667    1.02094938    1.02529949

         0.9091    1.02426291   -0.00282915    1.02426681    1.02933565
         0.9318    1.02770784   -0.00222797    1.02771026    1.03353393
         0.9545    1.03128262   -0.00155902    1.03128380    1.03790036
         0.9773    1.03499143   -0.00081792    1.03499175    1.04244138
         1.0000    1.03883866   -0.00000000    1.03883866    1.04716380
          FROM CUBIC, X/Y* = 0.10589173 FOR W= 1.0

                      X/Y* = 0.30916405 FOR W= 1.06914498

          CORRECTED WOPPP= -7.5033231E-02

          RMASS = Y*/YO = 0.9997135747


          AXIAL VELOCITY DISTRIBUTION, Y=0

          X/Y*         W                 WP                WPP               M                 MP                MPP

         0.000     9.6385164E-01     3.4136118E-01     2.8328436E-03     9.5708127E-01     4.0106175E-01     8.1394664E-02
         0.100     9.9798942E-01     3.4126930E-01    -4.6704794E-03     9.9758876E-01     4.0903012E-01     7.7920331E-02
         0.200     1.0320805E+00     3.4042708E-01    -1.2173802E-02     1.0388752E+00     4.1663401E-01     7.4091422E-02
         0.300     1.0660498E+00     3.3883454E-01    -1.9677126E-02     1.0809021E+00     4.2383370E-01     6.9820989E-02
       0.30913716  1.0691450E+00     3.3865161E-01    -2.0362716E-02     1.0847776E+00     4.2446977E-01     6.9405507E-02
         0.400     1.0998224E+00     3.3649166E-01    -2.7180449E-02     1.1236268E+00     4.3058029E-01     6.5012734E-02
         0.500     1.1333231E+00     3.3339845E-01    -3.4683772E-02     1.1670011E+00     4.3681479E-01     5.9560535E-02
         0.600     1.1664771E+00     3.2955490E-01    -4.2187095E-02     1.2109704E+00     4.4246707E-01     5.3348148E-02
         0.700     1.1992091E+00     3.2496103E-01    -4.9690418E-02     1.2554724E+00     4.4745488E-01     4.6249172E-02
         0.800     1.2314443E+00     3.1961682E-01    -5.7193741E-02     1.3004360E+00     4.5168282E-01     3.8127370E-02
         0.900     1.2631075E+00     3.1352228E-01    -6.4697064E-02     1.3457800E+00     4.5504143E-01     2.8837498E-02
         1.000     1.2941237E+00     3.0667741E-01    -7.2200387E-02     1.3914112E+00     4.5740630E-01     1.8226785E-02
1  Mach 5.5   INVISCID CONTOUR, 4TH-DEGAXIAL MACH NUMBER DISTRIBUTION FROM THROAT CHARACTERISTIC WHICH HAS  45 POINTS

     NO. OF POINTS ON 1ST CHAR. (M)= 61     NO. OF POINTS ON AXIS (N)= 41     EPSI/ETA= 0.00000    BMACH=  5.50000    CMACH=  5.50000

     GAMMA= 1.4000     INFLECTION ANG. (ETA)= 60.0000  DEGREES     RAD. OF CURV. (RC)=   6.000000     SCALE FACTOR (SF)=   0.13000000

     Y*=1.00000000    RMASS=0.99971357    WWO= 1.0388387    WWOP= 0.39255278    EMACH= 5.50000    FMACH= 5.5000000    GMACH=  0.00000

          WI=  1.06914498    WIP=  0.33865161    WIPP= -2.0362716E-02    MI=  1.08477764    MIP=  0.42446977    MIPP=  6.9405507E-02

          C1=  1.0847776   C2=  6.29019189   C3=  7.6207585E+00   C4= -1.6451203E+01   C5=  6.9554752E+00   C6=  0.0000000E+00

          XOI=  0.10589746   XI=  0.30913716   XO=  0.00000000   YO=  1.00028651   XIE= 14.81893966   XE= 15.12807683    0 ITERATIONS

          MACH 0.95708127 AT 53.7642459 IN.,   MACH 1 AT 53.7780125 IN.,   MACH 1.08477764 AT 53.8044337 IN.

  AXIS
 POINT    X       X(IN)   MACH NO.    DM/DX        D2M/DX2       D3M/DX3       W=Q/A*     DW/DX        D2W/DX2       D3W/DX3

   1  15.12808  55.73090  5.500000  5.394182E-16  6.471217E-17  2.096462E-02  2.269127  3.156694E-17  3.786979E-18  1.226857E-03
   2  14.46790  55.64507  5.499022  4.402489E-03 -1.308595E-02  1.867940E-02  2.269069  2.577532E-04 -7.666762E-04  1.098364E-03
   3  13.82114  55.56099  5.492621  1.661685E-02 -2.444319E-02  1.644059E-02  2.268694  9.757901E-04 -1.442973E-03  9.990411E-04
   4  13.18784  55.47867  5.476523  3.524684E-02 -3.416075E-02  1.424842E-02  2.267745  2.085485E-03 -2.055736E-03  9.441284E-04
   5  12.56810  55.39810  5.447575  5.901681E-02 -4.232639E-02  1.210315E-02  2.266021  3.539782E-03 -2.637161E-03  9.412727E-04
   6  11.96197  55.31930  5.403598  8.676668E-02 -4.902655E-02  1.000502E-02  2.263356  5.313503E-03 -3.220873E-03  9.946152E-04
   7  11.36955  55.24229  5.343263  1.174471E-01 -5.434634E-02  7.954310E-03  2.259607  7.401848E-03 -3.840408E-03  1.107600E-03
   8  10.79090  55.16706  5.265963  1.501144E-01 -5.836957E-02  5.951294E-03  2.254644  9.818422E-03 -4.529132E-03  1.284726E-03
   9  10.22611  55.09364  5.171707  1.839261E-01 -6.117870E-02  3.996256E-03  2.248336  1.259343E-02 -5.320909E-03  1.532553E-03
  10   9.67527  55.02203  5.061013  2.181358E-01 -6.285484E-02  2.089493E-03  2.240547  1.577232E-02 -6.251054E-03  1.860217E-03

  11   9.13846  54.95225  4.934818  2.520885E-01 -6.347775E-02  2.313127E-04  2.231129  1.941479E-02 -7.357293E-03  2.279578E-03
  12   8.61578  54.88430  4.794391  2.852163E-01 -6.312582E-02 -1.577966E-03  2.219919  2.359416E-02 -8.680520E-03  2.805036E-03
  13   8.10732  54.81820  4.641255  3.170332E-01 -6.187604E-02 -3.338010E-03  2.206736  2.839674E-02 -1.026515E-02  3.452912E-03
  14   7.61319  54.75396  4.477120  3.471311E-01 -5.980402E-02 -5.048472E-03  2.191378  3.392095E-02 -1.215884E-02  4.240230E-03
  15   7.13349  54.69160  4.303819  3.751748E-01 -5.698396E-02 -6.708991E-03  2.173625  4.027581E-02 -1.441133E-02  5.182626E-03
  16   6.66832  54.63113  4.123254  4.008980E-01 -5.348865E-02 -8.319187E-03  2.153239  4.757834E-02 -1.707202E-02  6.291074E-03
  17   6.21780  54.57256  3.937348  4.240985E-01 -4.938944E-02 -9.878665E-03  2.129972  5.594941E-02 -2.018596E-02  7.567108E-03
  18   5.78206  54.51591  3.748002  4.446340E-01 -4.475626E-02 -1.138701E-02  2.103566  6.550744E-02 -2.378785E-02  8.996365E-03
  19   5.36121  54.46120  3.557063  4.624181E-01 -3.965756E-02 -1.284378E-02  2.073775  7.635963E-02 -2.789391E-02  1.054055E-02
  20   4.95540  54.40845  3.366289  4.774155E-01 -3.416035E-02 -1.424852E-02  2.040369  8.859046E-02 -3.249176E-02  1.212855E-02

  21   4.56476  54.35766  3.177329  4.896384E-01 -2.833018E-02 -1.560074E-02  2.003158  1.022476E-01 -3.752907E-02  1.364816E-02
  22   4.18944  54.30887  2.991703  4.991419E-01 -2.223110E-02 -1.689993E-02  1.962016  1.173262E-01 -4.290248E-02  1.494103E-02
  23   3.82960  54.26209  2.810786  5.060206E-01 -1.592571E-02 -1.814553E-02  1.916902  1.337529E-01 -4.844933E-02  1.580408E-02
  24   3.48541  54.21735  2.635799  5.104037E-01 -9.475093E-03 -1.933697E-02  1.867887  1.513726E-01 -5.394528E-02  1.600098E-02
  25   3.15704  54.17466  2.467805  5.124521E-01 -2.938871E-03 -2.047362E-02  1.815179  1.699410E-01 -5.911118E-02  1.528576E-02
  26   2.84469  54.13406  2.307705  5.123538E-01  3.624822E-03 -2.155482E-02  1.759140  1.891250E-01 -6.363142E-02  1.343798E-02
  27   2.54858  54.09556  2.156242  5.103204E-01  1.015932E-02 -2.257984E-02  1.700292  2.085161E-01 -6.718379E-02  1.030429E-02
  28   2.26892  54.05921  2.014005  5.065836E-01  1.660939E-02 -2.354790E-02  1.639316  2.276547E-01 -6.947774E-02  5.837318E-03
  29   2.00596  54.02502  1.881440  5.013914E-01  2.292125E-02 -2.445815E-02  1.577036  2.460649E-01 -7.029463E-02  1.205567E-04
  30   1.75997  53.99304  1.758857  4.950044E-01  2.904245E-02 -2.530965E-02  1.514384  2.632957E-01 -6.952185E-02 -6.629834E-03

  31   1.53124  53.96331  1.646450  4.876928E-01  3.492185E-02 -2.610138E-02  1.452361  2.789608E-01 -6.717318E-02 -1.408937E-02
  32   1.32012  53.93586  1.544308  4.797330E-01  4.050950E-02 -2.683218E-02  1.391995  2.927720E-01 -6.339091E-02 -2.187069E-02
  33   1.12698  53.91075  1.452439  4.714043E-01  4.575649E-02 -2.750075E-02  1.334294  3.045603E-01 -5.842988E-02 -2.957852E-02
  34   0.95225  53.88804  1.370791  4.629862E-01  5.061467E-02 -2.810560E-02  1.280213  3.142817E-01 -5.262818E-02 -3.686034E-02
  35   0.79642  53.86778  1.299278  4.547556E-01  5.503632E-02 -2.864500E-02  1.230624  3.220085E-01 -4.637157E-02 -4.344173E-02
  36   0.66010  53.85006  1.237807  4.469851E-01  5.897352E-02 -2.911690E-02  1.186315  3.279087E-01 -4.005959E-02 -4.914111E-02
  37   0.54400  53.83497  1.186320  4.399416E-01  6.237713E-02 -2.951876E-02  1.147990  3.322175E-01 -3.407890E-02 -5.386470E-02
  38   0.44907  53.82263  1.144842  4.338867E-01  6.519491E-02 -2.984736E-02  1.116307  3.352042E-01 -2.878775E-02 -5.758637E-02
  39   0.37658  53.81320  1.113563  4.290822E-01  6.736759E-02 -3.009828E-02  1.091937  3.371373E-01 -2.451379E-02 -6.031743E-02
  40   0.32851  53.80695  1.093012  4.258084E-01  6.881866E-02 -3.026471E-02  1.075700  3.382455E-01 -2.157159E-02 -6.206680E-02

  41   0.30914  53.80443  1.084778  4.244698E-01  6.940551E-02 -3.033175E-02  1.069145  3.386516E-01 -2.036272E-02 -6.275631E-02
   Mach 5.5   THROAT CHARACTERISTIC
             
        POINT        X              Y          MACH NO.      MACH ANG.(D)     PSI (D)     FLOW ANG.(D)        X(IN)         Y(IN)

          1    3.0913716E-01  0.0000000E+00  1.0847776E+00  6.7197746E+01  1.0529038E+00  0.0000000E+00    53.8044337     0.0000000
          2    2.9968938E-01  2.2733784E-02  1.0808196E+00  6.7702118E+01  9.8245330E-01  3.4811254E-02    53.8032055     0.0029554
          3    2.9045753E-01  4.5467569E-02  1.0770581E+00  6.8195247E+01  9.1681691E-01  6.6427763E-02    53.8020054     0.0059108
          4    2.8143631E-01  6.8201353E-02  1.0734886E+00  6.8676517E+01  8.5576299E-01  9.5024047E-02    53.8008326     0.0088662
          5    2.7262016E-01  9.0935137E-02  1.0701068E+00  6.9145286E+01  7.9906689E-01  1.2076881E-01    53.7996865     0.0118216
          6    2.6400330E-01  1.1366892E-01  1.0669086E+00  6.9600893E+01  7.4651091E-01  1.4382499E-01    53.7985663     0.0147770
          7    2.5557964E-01  1.3640271E-01  1.0638898E+00  7.0042658E+01  6.9788437E-01  1.6434976E-01    53.7974712     0.0177324
          8    2.4734286E-01  1.5913649E-01  1.0610463E+00  7.0469885E+01  6.5298359E-01  1.8249452E-01    53.7964004     0.0206877
          9    2.3928637E-01  1.8187027E-01  1.0583743E+00  7.0881870E+01  6.1161200E-01  1.9840486E-01    53.7953531     0.0236431
         10    2.3140329E-01  2.0460406E-01  1.0558697E+00  7.1277900E+01  5.7358019E-01  2.1222051E-01    53.7943283     0.0265985

         11    2.2368649E-01  2.2733784E-01  1.0535288E+00  7.1657260E+01  5.3870607E-01  2.2407524E-01    53.7933251     0.0295539
         12    2.1612856E-01  2.5007163E-01  1.0513475E+00  7.2019244E+01  5.0681496E-01  2.3409680E-01    53.7923426     0.0325093
         13    2.0872186E-01  2.7280541E-01  1.0493223E+00  7.2363158E+01  4.7773972E-01  2.4240679E-01    53.7913797     0.0354647
         14    2.0145844E-01  2.9553920E-01  1.0474492E+00  7.2688328E+01  4.5132091E-01  2.4912055E-01    53.7904355     0.0384201
         15    1.9433017E-01  3.1827298E-01  1.0457246E+00  7.2994111E+01  4.2740693E-01  2.5434708E-01    53.7895088     0.0413755
         16    1.8732865E-01  3.4100676E-01  1.0441447E+00  7.3279902E+01  4.0585415E-01  2.5818887E-01    53.7885986     0.0443309
         17    1.8044527E-01  3.6374055E-01  1.0427059E+00  7.3545146E+01  3.8652703E-01  2.6074190E-01    53.7877038     0.0472863
         18    1.7367127E-01  3.8647433E-01  1.0414044E+00  7.3789343E+01  3.6929826E-01  2.6209546E-01    53.7868231     0.0502417
         19    1.6699767E-01  4.0920812E-01  1.0402367E+00  7.4012062E+01  3.5404880E-01  2.6233217E-01    53.7859556     0.0531971
         20    1.6041539E-01  4.3194190E-01  1.0391991E+00  7.4212946E+01  3.4066795E-01  2.6152787E-01    53.7850999     0.0561524

         21    1.5391523E-01  4.5467569E-01  1.0382882E+00  7.4391723E+01  3.2905341E-01  2.5975170E-01    53.7842549     0.0591078
         22    1.4748792E-01  4.7740947E-01  1.0375005E+00  7.4548207E+01  3.1911120E-01  2.5706604E-01    53.7834193     0.0620632
         23    1.4112417E-01  5.0014325E-01  1.0368326E+00  7.4682307E+01  3.1075568E-01  2.5352664E-01    53.7825920     0.0650186
         24    1.3481466E-01  5.2287704E-01  1.0362811E+00  7.4794027E+01  3.0390939E-01  2.4918267E-01    53.7817718     0.0679740
         25    1.2855012E-01  5.4561082E-01  1.0358428E+00  7.4883468E+01  2.9850296E-01  2.4407688E-01    53.7809574     0.0709294
         26    1.2232136E-01  5.6834461E-01  1.0355147E+00  7.4950826E+01  2.9447491E-01  2.3824575E-01    53.7801476     0.0738848
         27    1.1611931E-01  5.9107839E-01  1.0352937E+00  7.4996385E+01  2.9177149E-01  2.3171969E-01    53.7793414     0.0768402
         28    1.0993502E-01  6.1381217E-01  1.0351769E+00  7.5020517E+01  2.9034637E-01  2.2452324E-01    53.7785374     0.0797956
         29    1.0375973E-01  6.3654596E-01  1.0351617E+00  7.5023671E+01  2.9016044E-01  2.1667534E-01    53.7777346     0.0827510
         30    9.7584884E-02  6.5927974E-01  1.0352454E+00  7.5006365E+01  2.9118151E-01  2.0818956E-01    53.7769319     0.0857064

         31    9.1402159E-02  6.8201353E-01  1.0354256E+00  7.4969175E+01  2.9338401E-01  1.9907434E-01    53.7761282     0.0886618
         32    8.5203476E-02  7.0474731E-01  1.0357001E+00  7.4912727E+01  2.9674869E-01  1.8933332E-01    53.7753223     0.0916172
         33    7.8981021E-02  7.2748110E-01  1.0360668E+00  7.4837682E+01  3.0126232E-01  1.7896553E-01    53.7745134     0.0945725
         34    7.2727262E-02  7.5021488E-01  1.0365238E+00  7.4744732E+01  3.0691743E-01  1.6796567E-01    53.7737004     0.0975279
         35    6.6434949E-02  7.7294866E-01  1.0370695E+00  7.4634583E+01  3.1371200E-01  1.5632434E-01    53.7728824     0.1004833
         36    6.0097126E-02  7.9568245E-01  1.0377023E+00  7.4507948E+01  3.2164920E-01  1.4402826E-01    53.7720585     0.1034387
         37    5.3707124E-02  8.1841623E-01  1.0384209E+00  7.4365542E+01  3.3073716E-01  1.3106048E-01    53.7712278     0.1063941
         38    4.7258563E-02  8.4115002E-01  1.0392241E+00  7.4208067E+01  3.4098878E-01  1.1740052E-01    53.7703895     0.1093495
         39    4.0745346E-02  8.6388380E-01  1.0401111E+00  7.4036213E+01  3.5242148E-01  1.0302455E-01    53.7695428     0.1123049
         40    3.4161648E-02  8.8661759E-01  1.0410811E+00  7.3850645E+01  3.6505709E-01  8.7905506E-02    53.7686869     0.1152603

         41    2.7501911E-02  9.0935137E-01  1.0421336E+00  7.3652006E+01  3.7892168E-01  7.2013171E-02    53.7678211     0.1182157
         42    2.0760830E-02  9.3208515E-01  1.0432682E+00  7.3440909E+01  3.9404549E-01  5.5314267E-02    53.7669448     0.1211711
         43    1.3933340E-02  9.5481894E-01  1.0444847E+00  7.3217934E+01  4.1046283E-01  3.7772484E-02    53.7660572     0.1241265
         44    7.0146040E-03  9.7755272E-01  1.0457832E+00  7.2983628E+01  4.2821204E-01  1.9348505E-02    53.7651578     0.1270819
         45    0.0000000E+00  1.0002865E+00  1.0471638E+00  7.2738506E+01  4.4733546E-01  0.0000000E+00    53.7642459     0.1300372
1  Mach 5.5   INVISCID CONTOUR

  CHARACT   1
        POINT        X              Y          MACH NO.     MACH ANG.(D)      PSI (D)      FLOW ANG.(D)       X(IN)         Y(IN)

          1    1.5128077E+01  0.0000000E+00  5.5000000E+00  1.0475682E+01  8.1244790E+01  0.0000000E+00    55.7308959     0.0000000
          2    1.5675398E+01  1.0119970E-01  5.5000000E+00  1.0475682E+01  8.1244790E+01  0.0000000E+00    55.8020476     0.0131560
          3    1.6222719E+01  2.0239939E-01  5.5000000E+00  1.0475682E+01  8.1244790E+01  0.0000000E+00    55.8731993     0.0263119
          4    1.6770040E+01  3.0359909E-01  5.5000000E+00  1.0475682E+01  8.1244790E+01  0.0000000E+00    55.9443511     0.0394679
          5    1.7317361E+01  4.0479879E-01  5.5000000E+00  1.0475682E+01  8.1244790E+01  0.0000000E+00    56.0155028     0.0526238
          6    1.7864682E+01  5.0599848E-01  5.5000000E+00  1.0475682E+01  8.1244790E+01  0.0000000E+00    56.0866545     0.0657798
          7    1.8412003E+01  6.0719818E-01  5.5000000E+00  1.0475682E+01  8.1244790E+01  0.0000000E+00    56.1578063     0.0789358
          8    1.8959324E+01  7.0839788E-01  5.5000000E+00  1.0475682E+01  8.1244790E+01  0.0000000E+00    56.2289580     0.0920917
          9    1.9506645E+01  8.0959757E-01  5.5000000E+00  1.0475682E+01  8.1244790E+01  0.0000000E+00    56.3001097     0.1052477
         10    2.0053966E+01  9.1079727E-01  5.5000000E+00  1.0475682E+01  8.1244790E+01  0.0000000E+00    56.3712615     0.1184036

         11    2.0601287E+01  1.0119970E+00  5.5000000E+00  1.0475682E+01  8.1244790E+01  0.0000000E+00    56.4424132     0.1315596
         12    2.1148608E+01  1.1131967E+00  5.5000000E+00  1.0475682E+01  8.1244790E+01  0.0000000E+00    56.5135650     0.1447156
         13    2.1695929E+01  1.2143964E+00  5.5000000E+00  1.0475682E+01  8.1244790E+01  0.0000000E+00    56.5847167     0.1578715
         14    2.2243250E+01  1.3155961E+00  5.5000000E+00  1.0475682E+01  8.1244790E+01  0.0000000E+00    56.6558684     0.1710275
